Timestamp,Raw_ECG,Filtered_ECG
1745524544.4033165,90,-4.593474594700547
1745524544.4210634,96,-4.838507709274026
1745524544.5613945,96,-4.592618280124292
1745524544.6553257,100,-4.563166613167571
1745524544.69614,99,-4.077300871534732
1745524544.737248,100,-3.6262404548817493
1745524544.7831438,93,-2.732541922637555
1745524544.8261125,92,-1.855850871881092
1745524544.8684838,84,-0.8159127136899862
1745524544.9042118,84,0.20252084424482497
1745524544.9420834,79,1.3895392365842225
1745524544.9820077,80,2.2462274251613787
1745524545.0163138,78,3.827675141754562
1745524545.0540633,80,4.4364450085775164
1745524545.0845473,78,6.332223875329053
1745524545.1209438,80,7.351983719353545
1745524545.156891,79,8.61812734160796
1745524545.1934593,80,10.99278002174296
1745524545.230669,78,11.295164111820448
1745524545.2667124,80,14.415118556477609
1745524545.3022258,79,15.394919500846418
1745524545.335485,79,16.619403809006034
1745524545.369795,79,21.201199269707303
1745524545.4036014,79,19.13119099049372
1745524545.4491637,80,24.52415357865685
1745524545.4888742,80,28.814095311940502
1745524545.520122,81,15.973243586217253
1745524545.5540354,80,6.065357616430218
1745524545.5900674,82,4.228330209428851
1745524545.6271214,80,2.753063633821915
1745524545.6573398,82,0.8451687690816971
1745524545.6946218,80,-0.22196857242047052
1745524545.727983,82,-0.9047156038464017
1745524545.768252,81,-1.0066147768709435
1745524545.8005896,83,-0.855042454404197
1745524545.836282,80,-0.573428606474538
1745524545.8701577,83,-0.6312187490613024
1745524545.9109313,80,-0.48406457368102096
1745524545.943433,83,-0.8869449181513094
1745524545.9854295,80,-1.1275000542422706
1745524546.017494,84,-1.6256537286620318
1745524546.056879,81,-1.7363096221377
1745524546.0952637,83,-2.334014184371812
1745524546.1343691,80,-2.4356133196004564
1745524546.1687346,83,-2.629393280997709
1745524546.4029398,80,-2.8064098424308206
1745524546.4484262,82,-3.1884285421731047
1745524546.5507035,80,-3.15258558808873
1745524546.619125,83,-3.4711203973923013
1745524546.6792412,80,-3.46128956069634
1745524546.7431834,82,-3.7535470771773216
1745524546.8065548,81,-4.071596141103029
1745524546.8694851,82,-4.251335958425324
1745524546.9154637,81,-4.393795095968656
1745524546.9655335,82,-4.7016018196745515
1745524547.0212352,81,-4.698113762320318
1745524547.0676649,82,-4.942536727925156
1745524547.1152527,81,-4.9248419760552995
1745524547.1780667,82,-5.006559119138281
1745524547.2292702,82,-5.3101648957225684
1745524547.280712,81,-5.375380585861547
1745524547.331652,81,-5.366312285031308
1745524547.3850644,81,-5.376501203086143
1745524547.448569,84,-5.610810430535578
1745524547.4959784,82,-5.520458048401564
1745524547.5433092,86,-5.674527956447278
1745524547.5920136,85,-5.83557665962666
1745524547.6546526,84,-5.906312222898483
1745524547.719249,80,-5.572104249537835
1745524547.7661734,82,-5.52670911104814
1745524547.830229,79,-5.34491259241591
1745524547.8928845,83,-5.566396230150895
1745524547.9412673,79,-5.083903034278492
1745524547.9879916,75,-4.815464441129792
1745524548.0344226,69,-4.684802183614557
1745524548.0822654,117,-6.916453718620491
1745524548.129917,144,-8.192829602066332
1745524548.1776392,112,-6.456300837582269
1745524548.2251065,88,-5.018687157623963
1745524548.2731133,84,-4.650420217820794
1745524548.3360488,79,-4.092482722413045
1745524548.383852,81,-4.057279547361214
1745524548.4316359,78,-3.6287192168163713
1745524548.4948947,81,-3.533949919310675
1745524548.5430896,79,-3.2734237509659785
1745524548.606964,81,-3.158550449862145
1745524548.6546414,80,-3.0003644884019582
1745524548.7187428,83,-2.4578412530395735
1745524548.7686129,82,-2.329017363719057
1745524548.816264,85,-2.6912404714380465
1745524548.861877,86,-2.3047074210119303
1745524548.909364,88,-2.83567450439639
1745524548.9584477,90,-2.9757831871961433
1745524549.0208142,92,-2.8160707478689484
1745524549.0832233,95,-2.1902063341633626
1745524549.1452625,97,-1.412448015202954
1745524549.1908169,98,-1.738220707087227
1745524549.2406564,96,-0.3924523610634001
1745524549.2862523,94,-1.00484550064568
1745524549.335245,88,0.4229389180298111
1745524549.3975873,84,5.618899467063239
1745524549.461453,79,-0.5893158898557693
1745524549.5246258,79,-11.871151637096304
1745524549.5726364,76,-11.166018110328096
1745524549.621927,77,-5.513859867708031
1745524549.669282,75,-2.4432217913125642
1745524549.7164583,77,-1.3535370129325341
1745524549.7652981,75,-0.6804295132475782
1745524549.8290768,77,-0.287749928460183
1745524549.889537,75,0.08831587771642835
1745524549.9547436,77,0.12531394392448947
1745524550.0183868,75,0.6066620308555892
1745524550.0797842,78,0.5737186266790917
1745524550.14319,76,0.6197290610327224
1745524550.1922212,79,0.5631904053936747
1745524550.2553818,76,0.5273302954449401
1745524550.3136315,78,0.12013932386849646
1745524550.3616843,76,-0.13004126532442228
1745524550.411464,79,-0.8014414313198994
1745524550.472571,77,-1.2711433547639048
1745524550.5210369,79,-2.1936917120860233
1745524550.5838761,78,-3.144956404863847
1745524550.6322594,80,-4.042330242716743
1745524550.6781363,79,-4.416834665755288
1745524550.725744,80,-4.505894717445581
1745524550.7730923,78,-3.9083679277136545
1745524550.8211014,79,-2.9316134598812678
1745524550.884297,79,-1.949943927702992
1745524550.9315917,80,-1.3586713651338362
1745524550.9796476,79,-0.8268248232738493
1745524551.0274153,80,-0.43973864045903
1745524551.091425,80,-0.10515310786380994
1745524551.1569967,80,0.0876069570297302
1745524551.2040718,81,0.2811113178974418
1745524551.250037,80,0.5458002214075943
1745524551.2993035,81,0.6871608609109066
1745524551.3467505,80,1.0036915558466823
1745524551.395317,82,1.088320491725833
1745524551.4429226,81,1.2584053456213242
1745524551.4907134,84,1.1638587307469725
1745524551.5368989,82,1.3001121170498573
1745524551.601771,84,1.3535610291355882
1745524551.6652412,83,1.730538495143711
1745524551.7287986,85,1.8325082399169075
1745524551.7932346,82,1.978907988975946
1745524551.8542542,84,1.9767500922899819
1745524551.903716,82,2.213078989480187
1745524551.9507136,85,2.10595210168207
1745524551.99808,83,2.1968019077125587
1745524552.044809,85,2.095448073149151
1745524552.0909755,83,2.248732832210509
1745524552.1394544,86,2.3624062559229664
1745524552.1898088,84,2.7633836542740604
1745524552.2374346,88,2.5007672215677985
1745524552.284377,85,2.6608148795871442
1745524552.3316185,89,2.637129675581882
1745524552.3777,87,2.7801431544669395
1745524552.427374,86,2.8931991281931806
1745524552.475507,83,3.1259645909285343
1745524552.5346193,84,3.066914985451512
1745524552.584719,84,3.12537430214515
1745524552.6322885,85,3.2351375966333458
1745524552.6790502,82,3.423915841205702
1745524552.7263846,75,3.7984680617020814
1745524552.79364,77,3.658557165482086
1745524552.8417828,129,0.725970832636941
1745524552.9032679,141,0.04500758879605016
1745524552.9512484,106,2.0275397740809566
1745524553.016289,89,2.767491698290798
1745524553.0803428,83,3.066383657252251
1745524553.1436386,82,3.3736238116454675
1745524553.2058043,80,3.6170707392953156
1745524553.2705023,81,3.817410640938955
1745524553.3303308,79,3.763871146204061
1745524553.378817,82,3.590372536726668
1745524553.4299266,80,3.873064040484636
1745524553.4775038,83,3.557010539705038
1745524553.5389197,82,3.834272566321416
1745524553.6038253,85,3.357417657934845
1745524553.6646645,83,3.2770545267726634
1745524553.7282069,87,3.1125210048454024
1745524553.7786229,86,2.6481816461632866
1745524553.8418674,91,2.4331007662596793
1745524553.8932498,91,2.247755781173433
1745524553.9379706,96,2.925917163796691
1745524553.9869478,95,3.206109897997281
1745524554.0355113,98,2.5126560428471785
1745524554.0988612,93,3.8261088785391966
1745524554.1456068,92,2.5464755524121863
1745524554.2105799,84,5.255759575591637
1745524554.2573438,82,8.805164034492062
1745524554.3226893,78,0.03085797427191661
1745524554.3709123,77,-9.387326872122298
1745524554.4334307,73,-6.910137021732005
1745524554.4970634,74,-1.8611474884371635
1745524554.5592473,74,0.3523182426033076
1745524554.6217299,75,1.1407946314050061
1745524554.6841521,74,1.489358260270829
1745524554.7471743,75,1.7224316420277317
1745524554.797461,74,1.9960420446357867
1745524554.8582776,75,1.8801767991354161
1745524554.9064903,75,1.8649097689643748
1745524554.954327,76,1.788017535952851
1745524555.017362,76,1.4982900806188115
1745524555.0659149,76,1.2636104448921888
1745524555.111728,77,1.071266002624748
1745524555.1614013,77,0.7073496751611152
1745524555.209455,78,0.21467912942073175
1745524555.258815,77,-0.4148209391044064
1745524555.3191483,78,-1.3958418920378728
1745524555.3659449,77,-2.2758784185455956
1745524555.4170194,79,-3.4627781361684127
1745524555.4768414,78,-4.24499743698361
1745524555.5245373,80,-4.750919478838525
1745524555.5760975,78,-4.626334489170007
1745524555.6376796,81,-4.066450805775255
1745524555.6851802,78,-3.009844135153198
1745524555.732749,81,-2.6170035003438445
1745524555.7832203,79,-2.029356870520773
1745524555.8439627,81,-1.329190291350491
1745524555.8943315,79,-0.7466351018639616
1745524555.9560523,81,-0.8437510296880358
1745524556.0033436,80,-0.7064193630976143
1745524556.0650222,83,-0.7189975108880863
1745524556.1306221,80,-0.3996327553787257
1745524556.1761184,82,-0.3192202927197084
1745524556.2219303,79,-0.00248686267811693
1745524556.2878394,82,-0.06307491467743498
1745524556.336159,79,0.04943269810403628
1745524556.3836253,82,-0.018453457730550737
1745524556.4309916,80,0.18858765997188376
1745524556.4923823,81,0.16664396959164052
1745524556.5431132,81,0.1486469856775663
1745524556.6075013,81,0.09618815029798244
1745524556.655738,79,0.3216427054648032
1745524556.7193513,81,0.2870098027454475
1745524556.7788422,81,0.37810082190969
1745524556.8268688,81,0.4116185016791184
1745524556.8928354,84,0.06548909715076534
1745524556.9389815,84,0.1564688151060143
1745524556.9904287,81,0.2676554683511088
1745524557.050188,80,0.23091619064716729
1745524557.100649,79,0.4027383847897419
1745524557.1651864,78,0.3838144886855266
1745524557.227058,79,0.31829794257778876
1745524557.2764063,76,0.41046778401683004
1745524557.3387039,72,0.6516666851448623
1745524557.4026582,69,0.8602191152140692
1745524557.4666839,118,-1.8511143309695899
1745524557.5273144,140,-3.194050745587692
1745524557.5753787,106,-1.4997502027196852
1745524557.6226935,84,-0.09040129666316155
1745524557.687872,80,0.2710162436347634
1745524557.7500947,77,0.48158989676923314
1745524557.800074,78,0.6356575765308143
1745524557.847711,76,0.7163384967001649
1745524557.9112022,79,0.5434436957704349
1745524557.9742146,76,0.9785103154548294
1745524558.0252945,79,0.7000727168984553
1745524558.0845,77,0.7184974067370469
1745524558.1345868,81,1.2051852085883303
1745524558.1845105,79,1.044427269784685
1745524558.246117,84,0.7271538962473063
1745524558.2927759,83,1.156157833076435
1745524558.3432064,87,0.11065113227239148
1745524558.3874288,88,0.09069691339177477
1745524558.4516125,92,-0.05317620760698283
1745524558.5035815,93,0.5001592244655217
1745524558.5665653,97,0.9916438003253272
1745524558.6300244,96,0.6472250597588913
1745524558.6914525,96,2.062163583561368
1745524558.7548206,92,1.455314325607848
1745524558.8024745,88,2.9306255114949358
1745524558.8512833,84,7.435724138338035
1745524558.9118469,81,0.22884414460174485
1745524558.973603,79,-10.341369581145624
1745524559.023776,78,-9.108402676271456
1745524559.0722678,78,-3.3525552267485024
1745524559.1318686,77,-0.6202627290146241
1745524559.183809,78,0.17526115603282388
1745524559.245701,77,0.7336774430819144
1745524559.291268,79,0.9349911090963148
1745524559.3563602,78,1.1106929508547054
1745524559.406027,80,1.1928504912963707
1745524559.4652963,78,1.6263485800603794
1745524559.5306325,80,1.5491930369398306
1745524559.576009,78,1.6187474317340351
1745524559.6276715,81,1.5018129702826655
1745524559.6883178,78,1.2783693519406254
1745524559.7391183,81,0.8118386984500463
1745524559.8023453,78,0.6138399949088404
1745524559.8507454,81,-0.2749482854778229
1745524559.911709,78,-0.8229177652869886
1745524559.9749954,81,-1.8550389850412556
1745524560.0375965,78,-2.7740019885566483
1745524560.1004102,81,-3.7120111170745735
1745524560.1500793,79,-4.1461835498596535
1745524560.2105606,81,-4.2774249972388105
1745524560.2573776,78,-3.5807368464559284
1745524560.3065035,81,-3.0838106421851257
1745524560.366185,79,-2.296534963182073
1745524560.4158776,81,-1.7847334496804894
1745524560.462084,79,-1.3395432142173758
1745524560.5107188,81,-1.182455393534673
1745524560.57569,80,-0.9356658130712356
1745524560.6234155,81,-0.8369234989149583
1745524560.6867483,80,-0.6509191984833871
1745524560.7490468,81,-0.7029676911138919
1745524560.7981734,80,-0.6713741326819689
1745524560.8457785,81,-0.749756096915395
1745524560.9050539,81,-0.7092354790725275
1745524560.9560966,81,-0.5580701758937262
1745524561.0188153,81,-0.5419167901226608
1745524561.0823767,81,-0.5648959732993042
1745524561.1316726,83,-0.6240774083303138
1745524561.1912577,82,-0.49262437395644554
1745524561.241046,85,-0.5943703457818388
1745524561.3050885,85,-0.5348856427340811
1745524561.3669648,84,-0.375518798690738
1745524561.4305348,80,-0.1547575854738501
1745524561.4934592,82,-0.12688594231021716
1745524561.557503,80,0.06849374602061631
1745524561.6188672,82,-0.1664383414537992
1745524561.6684003,79,0.0915475795877958
1745524561.730525,77,0.4091708320048378
1745524561.7936108,68,0.8990681153906483
1745524561.8583064,106,-1.0741964642968038
1745524561.9205778,146,-3.122986367856992
1745524561.969579,116,-1.3601678383527336
1745524562.033002,89,0.1494052514637234
1745524562.0765617,84,0.4244523357668144
1745524562.1284194,79,0.9151208254829315
1745524562.1755288,80,0.9603384279848806
1745524562.2369475,78,1.246865325406889
1745524562.287747,80,1.34286324500609
1745524562.3493197,79,1.4657054601921558
1745524562.4124947,81,1.5252324338546543
1745524562.4583318,80,1.5112111853552141
1745524562.5077345,82,1.751400908565101
1745524562.5703967,81,1.8924592045536637
1745524562.621289,84,1.4541390951760849
1745524562.6832242,84,1.7847003210587178
1745524562.7475667,87,1.1506154919137166
1745524562.8095727,88,0.8492036893838315
1745524562.8574789,92,0.7762692872756758
1745524562.9201336,94,1.1449443550182377
1745524562.984164,96,2.0134925483686152
1745524563.0455565,98,1.1548513703373189
1745524563.109088,96,2.3600917655323475
1745524563.158688,93,2.471037752829112
1745524563.2042956,88,2.3142364633698693
1745524563.26965,84,7.703783027501503
1745524563.320978,80,3.789989566351356
1745524563.3803346,79,-8.535399569223674
1745524563.4315543,77,-9.701079944507601
1745524563.4758127,78,-3.988689313289485
1745524563.5249555,75,-0.6901016618595142
1745524563.5866966,78,0.35342014059550886
1745524563.6363902,75,1.0546859833529925
1745524563.7007895,78,1.2649279007794103
1745524563.7469385,76,1.5205936746448478
1745524563.8118403,78,1.5015809501168476
1745524563.859322,76,1.6613710222754006
1745524563.907547,79,1.4912013172635998
1745524563.9531276,77,1.650304272045342
1745524564.018389,80,1.4481721842389814
1745524564.0829892,77,1.4849967319953823
1745524564.1462662,80,0.9745271078124129
1745524564.2092829,77,0.7274713359063114
1745524564.2717774,80,0.14509767118842742
1745524564.3371725,78,-0.7167870008859114
1745524564.3991055,81,-1.733643465875336
1745524564.4487498,78,-2.508716884152321
1745524564.5106397,81,-3.745433377338338
1745524564.5724776,79,-4.176896298022321
1745524564.6236758,81,-4.338469184819655
1745524564.6852756,79,-3.6930262801792324
1745524564.7349696,81,-3.035720492405579
1745524564.7997994,80,-2.2306516232456244
1745524564.8614743,81,-1.5711361547654645
1745524564.9252725,81,-1.3562709293684034
1745524564.988569,81,-1.0061004705479493
1745524565.0375438,81,-0.6641937632849644
1745524565.098458,81,-0.5823747950645319
1745524565.1479526,81,-0.3219812744157624
1745524565.1927977,81,-0.23921522662062045
1745524565.2566104,81,-0.20781047661607355
1745524565.3060303,81,-0.025712367118528423
1745524565.3679838,82,0.03280543075846731
1745524565.4199505,80,0.1996382222706412
1745524565.479347,82,0.05584861283081188
1745524565.5462885,80,0.14250373079335743
1745524565.6079807,82,0.16514592661627314
1745524565.6725533,80,0.3165365069490812
1745524565.7213223,83,0.2835583587402559
1745524565.7826862,82,0.464053852310381
1745524565.846293,85,0.2336901267072744
1745524565.8940983,84,0.24956200068328593
1745524565.9402292,87,0.18537196078474194
1745524565.9918559,81,0.5771573801065197
1745524566.054015,82,0.44727410618809804
1745524566.1167395,80,0.5897518807212294
1745524566.167438,83,0.5904492960020016
1745524566.229463,80,0.6708149864029676
1745524566.2915452,81,0.6802237901452405
1745524566.3423789,72,1.1021697197311384
1745524566.4023833,73,0.9641833779324949
1745524566.4515018,119,-1.3401071370924562
1745524566.517167,144,-2.6605806995726446
1745524566.5809073,105,-0.47107526670314215
1745524566.6405673,89,0.43423895508089955
1745524566.6888843,81,0.9310876442314484
1745524566.7368853,81,1.2225403568189281
1745524566.8048306,78,1.3255663059840677
1745524566.8666637,80,1.3572162292598393
1745524566.9295716,79,1.597425635983139
1745524566.9779854,81,1.6159923066088848
1745524567.0413284,80,1.8632552601652237
1745524567.1056085,82,1.75383832053592
1745524567.1676326,81,2.1222970652574205
1745524567.227562,83,1.9232848401085159
1745524567.2783358,84,1.6850920282503496
1745524567.3402743,86,1.6533727530872104
1745524567.403236,88,0.9957345859176978
1745524567.4668396,90,0.8962104933484929
1745524567.5171373,93,0.821976039558588
1745524567.5813248,94,1.695768516965118
1745524567.6281557,98,1.915653772311492
1745524567.6900468,97,1.2596052557345545
1745524567.7396612,97,2.6597379196455386
1745524567.8011663,92,1.9696117813885268
1745524567.8507705,89,3.526670132710238
1745524567.9124436,83,8.319291080364911
1745524567.9639192,82,0.670298148342896
1745524568.025169,77,-9.702523006111
1745524568.0753882,79,-8.275424198994173
1745524568.136461,76,-2.680334758087816
1745524568.186606,79,-0.37383066542627397
1745524568.2487957,76,0.6953259077048353
1745524568.3101194,79,1.1076878632894727
1745524568.3740234,76,1.560919489719165
1745524568.4371023,79,1.4584831335824564
1745524568.5016515,76,1.7040750932941475
1745524568.551818,79,1.572192057533801
1745524568.6131642,77,1.672271059663152
1745524568.6748824,79,1.6067832995039342
1745524568.7249954,77,1.676520635618021
1745524568.786443,80,1.2543353752591768
1745524568.8374171,78,0.9423008583902
1745524568.9003077,80,0.422682909109658
1745524568.9484186,78,-0.218970260527535
1745524568.9970572,79,-1.010991280810917
1745524569.0597234,78,-1.7488796992044167
1745524569.12107,80,-2.965646480526569
1745524569.1690288,79,-3.7886894964995625
1745524569.232682,80,-4.356295463434191
1745524569.2823834,79,-4.320614488210435
1745524569.3473573,79,-3.7483712568113488
1745524569.4099488,79,-3.0539122480149477
1745524569.4720976,79,-2.3446579443398017
1745524569.5361767,80,-1.7132942039461372
1745524569.6032972,80,-1.289688209259913
1745524569.6650643,82,-1.207757226161585
1745524569.7278214,81,-1.0211872974443652
1745524569.7879124,83,-1.035392628266874
1745524569.8523653,81,-0.8079871893345631
1745524569.9128232,83,-0.772227533218298
1745524569.979131,81,-0.6069362851815499
1745524570.0255222,83,-0.51480829131754
1745524570.0742345,81,-0.3081268893908884
1745524570.1358724,82,-0.4043843489267268
1745524570.1992083,80,-0.13685522193069632
1745524570.2491207,83,-0.16262699789673285
1745524570.2975104,80,-0.08413465090032923
1745524570.3582432,83,-0.20398619695568798
1745524570.4097438,81,-0.07716228257588065
1745524570.47249,84,-0.14701392478349407
1745524570.5185037,83,0.15584701651387523
1745524570.5819533,87,0.053604821185949
1745524570.6278925,83,0.21305518667233825
1745524570.6937914,83,0.2165581175291501
1745524570.7435207,80,0.41081414587230514
1745524570.8035123,83,0.3570587574676954
1745524570.8535874,81,0.6664607418416536
1745524570.9153485,83,0.6870952741810946
1745524570.9655216,78,1.007376117609634
1745524571.0300305,71,1.4298485742289988
1745524571.0946476,90,0.3236857870848595
1745524571.1574612,144,-2.550470626159713
1745524571.2201083,123,-1.5683330572131489
1745524571.2834587,96,-0.1692320597327086
1745524571.3480506,84,0.5687403172495489
1745524571.4112115,82,0.7517159053123972
1745524571.4750326,80,1.014330332265141
1745524571.5341604,80,1.1041218575373741
1745524571.598534,80,1.164328872091346
1745524571.6633487,80,1.4638082674046866
1745524571.72851,81,1.6900563210398518
1745524571.7919416,80,1.6541913703359952
1745524571.8546555,82,1.7542200741667875
1745524571.9182217,82,1.937920809738209
1745524571.980859,85,1.5794986866797724
1745524572.0444703,84,1.9446546147711874
1745524572.1060321,88,1.3381433351569807
1745524572.1579006,89,0.9716852227883381
1745524572.219539,93,0.9065311845818862
1745524572.2829273,93,1.0386340548541118
1745524572.3486917,99,1.9716293415088657
1745524572.4087002,98,1.3627174831871978
1745524572.4701345,99,1.8249139101354146
1745524572.5369503,94,2.6699727641247257
1745524572.599894,92,1.3808830383583
1745524572.663356,85,6.480870788030932
1745524572.7264218,84,5.868367337297297
1745524572.792228,79,-5.737347550885356
1745524572.8537984,80,-10.191949207302272
1745524572.9168518,77,-5.151757699257363
1745524572.9815667,79,-1.3492018041914657
1745524573.0451162,77,0.22620848200965682
1745524573.0934548,79,0.7439495379698791
1745524573.1565628,78,1.1398571221827871
1745524573.203951,79,1.3512267112991503
1745524573.250572,78,1.523622222219081
1745524573.3003578,80,1.5146089444893969
1745524573.3634071,78,1.772035738577154
1745524573.4121299,79,1.8145114146326047
1745524573.4624624,78,1.730325224396601
1745524573.524317,79,1.38362633974365
1745524573.5882869,79,1.2277834494797426
1745524573.6520052,80,0.8791763870084452
1745524573.7015848,80,0.07637173237403705
1745524573.7634413,79,-0.5771304656810446
1745524573.825499,80,-1.293006566695587
1745524573.8897436,79,-2.4690785027239635
1745524573.952517,80,-3.629390248352822
1745524574.0136015,80,-4.222188458369527
1745524574.0769184,80,-4.4087121341678674
1745524574.1240342,79,-3.98848707819664
1745524574.1876047,81,-3.4213261569662348
1745524574.2494879,79,-2.5508959682259054
1745524574.2981877,81,-2.033272872821923
1745524574.3496802,79,-1.461026561683109
1745524574.4110131,81,-1.188586348172059
1745524574.4609358,78,-0.9147727307194872
1745524574.5228276,81,-0.8467715599000494
1745524574.5849245,79,-0.676164647815994
1745524574.632488,81,-0.8372242819609179
1745524574.682423,79,-0.546285298838411
1745524574.7319207,82,-0.655454263612295
1745524574.7938778,79,-0.5470436325760976
1745524574.843877,81,-0.563538746264892
1745524574.9061685,79,-0.25514614033565697
1745524574.9558249,82,-0.29338411721909874
1745524575.0158837,79,-0.1034238459848229
1745524575.0809457,81,-0.11054505075061538
1745524575.1468196,81,-0.32279795483077534
1745524575.2106454,83,-0.4184638416729911
1745524575.2712,82,-0.16333539011854237
1745524575.3196428,86,-0.41969031668246615
1745524575.3818038,83,-0.08375587971155296
1745524575.445276,82,0.0021934893858861493
1745524575.5077024,79,0.007177108474249905
1745524575.5583625,80,0.12307234839946171
1745524575.6172943,80,0.23017605178056538
1745524575.6808965,80,0.18783190888503065
1745524575.7285337,78,0.30172275896006506
1745524575.7923265,70,0.8044407646887666
1745524575.84255,79,0.325031212269014
1745524575.9035897,133,-2.4345485962368922
1745524575.9524057,131,-2.0467961405891764
1745524576.0141428,98,-0.23869594654003734
1745524576.078898,85,0.4052572358444071
1745524576.126699,80,0.9193479528344519
1745524576.1915305,79,1.0685952784575723
1745524576.2571385,77,1.1781422732063946
1745524576.3012676,78,1.2815687755035432
1745524576.352848,77,1.5448204296948322
1745524576.4126103,79,1.7179560948770374
1745524576.4602652,78,1.5686101990090253
1745524576.5268233,80,1.6828809910436062
1745524576.5904062,79,2.1614356320937924
1745524576.6529787,82,1.5214270516374158
1745524576.715714,81,1.7772027632970335
1745524576.7785604,85,1.3915893808396043
1745524576.8422303,85,0.8617072103893596
1745524576.902804,90,0.7982423072851832
1745524576.952918,90,0.7035619768337649
1745524577.014411,95,1.7479137413905876
1745524577.065273,95,1.6520301992874855
1745524577.130495,97,1.4779474173329827
1745524577.1749015,92,2.909328059797183
1745524577.226021,91,1.3885127391391436
1745524577.286489,84,5.139601211561099
1745524577.3380706,82,7.259421889350312
1745524577.3971474,78,-2.988272282259718
1745524577.4469302,78,-10.273232812026748
1745524577.4961886,76,-6.566636947437239
1745524577.5582795,77,-2.0524063102516306
1745524577.607287,76,-0.17484202534557358
1745524577.6682696,76,0.6057991370448343
1745524577.7173336,76,1.1122568516740374
1745524577.7805357,77,1.376443518053815
1745524577.8454802,77,1.5906617575496775
1745524577.9088008,77,1.666368956520905
1745524577.9732077,77,1.6951761348256982
1745524578.035431,77,1.7893243447234224
1745524578.0985858,78,1.7139976688551832
1745524578.1619947,77,1.6675744339278016
1745524578.2265093,78,1.4520308177181824
1745524578.271222,78,1.1330146634954414
1745524578.3380733,80,0.548870540925692
1745524578.3834345,78,-0.1114207822696684
1745524578.4313078,80,-0.9891405824593904
1745524578.4956443,78,-1.7698802243013099
1745524578.5449927,81,-3.0901919481857174
1745524578.6090515,79,-3.739221830600619
1745524578.6577578,81,-4.044034170133967
1745524578.7203653,78,-3.752478557877422
1745524578.7856112,81,-3.2773327939333874
1745524578.8461883,79,-2.3317387916058827
1745524578.9101207,81,-1.7881188445660237
1745524578.9608943,79,-1.2336640724564147
1745524579.0240245,81,-0.9487020817502244
1745524579.0723252,79,-0.6875115370483964
1745524579.1320236,82,-0.7079753393897865
1745524579.1956892,79,-0.2677713250694703
1745524579.247743,82,-0.26856581003505153
1745524579.3063438,79,-0.12606632817842667
1745524579.3715317,82,-0.24534803053499488
1745524579.4339657,80,-0.06090749139478191
1745524579.4799144,81,0.04909967150050287
1745524579.5471046,80,0.22132006091536294
1745524579.608318,82,0.0695469657328951
1745524579.67152,80,0.2968858073376296
1745524579.7214017,81,0.42509145947802274
1745524579.780882,81,0.32779764814709245
1745524579.828865,82,0.14866268789813186
1745524579.8931894,81,0.22771188784035823
1745524579.9434614,81,0.338213065223275
1745524579.9894097,82,0.3091831930851323
1745524580.0542717,82,0.2941110815459449
1745524580.119798,84,0.040019842986041
1745524580.1805153,83,0.11512564187519692
1745524580.2279804,86,0.23197653457434364
1745524580.279419,85,0.21363469162962234
1745524580.3387766,84,0.2720150199264213
1745524580.3899574,81,0.46033142216006007
1745524580.4497683,82,0.3951653571397083
1745524580.5009003,80,0.6707100399291043
1745524580.560682,83,0.4449645435942938
1745524580.626401,79,0.6388057556522029
1745524580.6913025,77,0.7695714746898301
1745524580.7543824,70,1.0794368073825846
1745524580.81917,116,-1.1138503434455442
1745524580.8810313,144,-2.629569409476602
1745524580.941668,111,-0.9216220141693618
1745524580.9926417,88,0.567710096976765
1745524581.0547853,84,0.8913935325130398
1745524581.1025226,79,1.163931786816128
1745524581.1685345,81,1.1795106681772634
1745524581.2297478,78,1.6935856256002135
1745524581.2933972,81,1.5177635389476474
1745524581.358972,79,1.5271567157922261
1745524581.4049816,82,1.6957479136538436
1745524581.4670744,80,1.805959722008343
1745524581.531355,83,1.9110506146442976
1745524581.5932167,82,1.803217146026461
1745524581.660449,85,1.4422625055321259
1745524581.7210815,85,1.701794714068706
1745524581.771349,88,0.9052978959137057
1745524581.8329604,90,0.8820075103356131
1745524581.8949766,94,0.7105157315012551
1745524581.9428704,96,1.0859370349602826
1745524581.9950204,98,1.881026019194843
1745524582.0547397,98,1.2167273092543698
1745524582.1208775,98,2.4600910151089144
1745524582.1838078,94,2.0189977714593845
1745524582.2441542,89,2.752993495841707
1745524582.308002,85,7.796101734142372
1745524582.3690035,81,1.7291956511182844
1745524582.416871,80,-9.556178274920573
1745524582.4809084,77,-8.900387380447638
1745524582.5291584,78,-3.391883829890415
1745524582.592338,76,-0.5535188203219858
1745524582.644847,78,0.4109383016673629
1745524582.7048268,76,0.9991370201490266
1745524582.7696936,79,1.158986231167403
1745524582.8202076,76,1.5352200523069577
1745524582.8833134,79,1.419019662984105
1745524582.9434223,77,1.584176744501303
1745524583.0102956,80,1.4835485075489965
1745524583.0712202,78,1.5586331742094721
1745524583.1382957,80,1.3956726115274045
1745524583.2004383,77,1.2919471591598
1745524583.2634668,80,0.8846064611428162
1745524583.3139038,78,0.5726379083926494
1745524583.3764086,81,-0.26135778701572465
1745524583.4408467,78,-1.0323666084254604
1745524583.5046434,81,-2.321100509325089
1745524583.566587,78,-3.0480083734748975
1745524583.629266,80,-3.9419341507932586
1745524583.692767,79,-4.612844574488586
1745524583.7530026,81,-4.780753837248175
1745524583.8183563,79,-4.134033263188501
1745524583.880576,80,-3.393448439563581
1745524583.944181,79,-2.5882112342973067
1745524583.994167,81,-2.1465399029610266
1745524584.0562804,80,-1.5860209639384353
1745524584.1058514,81,-1.249995102684616
1745524584.1681044,80,-1.0424503526816624
1745524584.2162046,80,-0.7864264547790784
1745524584.2807388,80,-0.7068684985390574
1745524584.3451416,80,-0.7033689052986069
1745524584.4067965,81,-0.5596272974282793
1745524584.4719877,81,-0.4852213857055927
1745524584.5370228,81,-0.4264489819714625
1745524584.6007962,81,-0.46578122996981564
1745524584.6601946,82,-0.5761419531754088
1745524584.7081661,80,-0.36722006018122655
1745524584.7730122,82,-0.2839810702936294
1745524584.8365407,80,-0.010138986976718334
1745524584.9011729,83,-0.2797469409622573
1745524584.9630842,80,-0.14899035088238466
1745524585.0288687,83,-0.17935529080732726
1745524585.091032,80,-0.08205833936375129
1745524585.1532288,84,-0.1212624900996846
1745524585.2041283,82,0.15536780260955685
1745524585.266272,85,-0.04119870745992915
1745524585.3287377,84,-0.06231967768090918
1745524585.391635,87,-0.18107780530594075
1745524585.4555798,81,0.38213912819858176
1745524585.503271,83,0.34805066556249853
1745524585.555495,80,0.4126390240491724
1745524585.6160562,83,0.27961306306362654
1745524585.6780171,80,0.36606690984077334
1745524585.7257693,80,0.5102520083705095
1745524585.7894492,70,1.1503744613930391
1745524585.8553503,79,0.7297072181076723
1745524585.9166558,130,-1.7360411329203949
1745524585.967257,136,-2.177016554655804
1745524586.0280197,100,-0.28240975556281533
1745524586.0758808,86,0.6259414912135706
1745524586.14301,81,0.9374243394746307
1745524586.2040582,81,1.0351999683490116
1745524586.2676516,78,1.3385939956566872
1745524586.3317459,79,1.584217142277918
1745524586.3946843,79,1.5688308614108402
1745524586.4575632,80,1.6158476493471725
1745524586.520143,80,1.729686299372588
1745524586.582994,80,1.7231550410957146
1745524586.647371,81,2.046147031400504
1745524586.6950262,82,1.7189210853962553
1745524586.7603104,84,1.58816226902205
1745524586.8056567,85,1.5796916352073662
1745524586.8693724,88,0.9332293806855516
1745524586.934552,89,0.9156374075142852
1745524586.9978724,94,0.6104742608336768
1745524587.047471,94,1.6453799360623065
1745524587.1074154,98,1.454671299834967
1745524587.1574416,96,1.3822718115884722
1745524587.2078922,97,2.5318338806645633
1745524587.2700958,91,1.558655768488063
1745524587.3342786,90,4.607477334182931
1745524587.3980584,83,7.527522210800908
1745524587.459862,82,-2.2174028169776565
1745524587.525021,78,-10.266246459142328
1745524587.584032,79,-7.184760893713478
1745524587.6498778,76,-1.9315254235972494
1745524587.7143133,78,-0.13908328546376136
1745524587.7759295,76,0.5497335164578114
1745524587.839738,78,1.0635962158560028
1745524587.9016163,76,1.5386875262747401
1745524587.966335,79,1.5173289514487203
1745524588.0142555,76,1.6982755939116072
1745524588.0742748,78,1.6459413333654225
1745524588.1417973,77,1.8935082422741298
1745524588.2021224,79,1.812730182673827
1745524588.2514775,77,1.7866499946178689
1745524588.3136892,79,1.4502642337175817
1745524588.3794441,78,1.095303393839921
1745524588.4410665,79,0.6092409540576398
1745524588.5067387,78,0.029575160858314686
1745524588.5559664,79,-0.9583558487585286
1745524588.61878,79,-1.9263044210227083
1745524588.6807775,79,-2.8033959123395884
1745524588.7322032,80,-3.7364444223002797
1745524588.7960734,80,-4.169605788117109
1745524588.8581164,80,-4.1104896575028915
1745524588.922997,80,-3.8025774806064176
1745524588.9857244,81,-3.153266641869771
1745524589.0482802,80,-2.3303399092368817
1745524589.0986574,82,-1.8732188011139335
1745524589.1604114,80,-1.4079431179800335
1745524589.222508,82,-1.1613218120017426
1745524589.2852662,80,-0.7991794961744694
1745524589.349006,82,-0.8376032589681058
1745524589.3984923,80,-0.5349941747857474
1745524589.4606156,82,-0.48706129399866116
1745524589.5239873,80,-0.4707387158450135
1745524589.5869875,83,-0.43179781617825963
1745524589.6513214,81,-0.04382479613122259
1745524589.7153878,83,-0.19275832129917658
1745524589.7806613,81,-0.0775011667232921
1745524589.8309927,84,-0.07994972906128317
1745524589.8927402,81,0.15681139959960433
1745524589.9542174,83,0.07470141049167867
1745524590.0183105,81,0.21015673412906555
1745524590.082146,84,0.2703717278753299
1745524590.1300776,82,0.39838299921626374
1745524590.1939127,84,0.2830035928630743
1745524590.2587636,82,0.5626755397153231
1745524590.3244605,84,0.3446518924425086
1745524590.3865185,83,0.35668778993501626
1745524590.449499,85,0.3988489469479368
1745524590.5101118,85,0.36238090559525915
1745524590.5751727,88,0.2551907775037767
1745524590.6385272,86,0.3610176402713834
1745524590.7025383,84,0.4161344311529034
1745524590.748692,82,0.5756650424322516
1745524590.8120375,83,0.5706829017842294
1745524590.8761826,83,0.6214517104590704
1745524590.9385645,83,0.6868732089812271
1745524591.0017262,81,0.826611067819202
1745524591.0648572,72,1.3510917860378417
1745524591.1298938,81,0.9757077619018344
1745524591.1934476,135,-1.895850270240679
1745524591.2558572,135,-1.9831841641709502
1745524591.3185518,101,-0.03740174393114515
1745524591.3847082,88,0.7232731324266206
1745524591.4476693,82,1.029238525358866
1745524591.5104086,82,1.160488435803536
1745524591.575542,79,1.5770677936144812
1745524591.6265664,82,1.6170151300219335
1745524591.687703,79,1.6858048904277405
1745524591.7532969,82,1.611584314920469
1745524591.8174522,80,1.7571349225676944
1745524591.8807018,84,1.6471407289065945
1745524591.9429364,82,1.969255867280099
1745524592.005317,85,1.584020457194235
1745524592.0677004,83,1.8777973978033662
1745524592.1314716,87,1.4248587087305098
1745524592.196557,87,0.8845160074586451
1745524592.2609932,92,0.7511461312356212
1745524592.3225462,92,0.7463919481875276
1745524592.3862612,97,1.7028788958555734
1745524592.4522955,96,1.5387208258162512
1745524592.514079,99,1.3077668636300195
1745524592.5789585,95,2.6146600013959373
1745524592.642862,92,1.1882543753863466
1745524592.7042496,86,4.948209308739723
1745524592.7685816,83,7.284683316942244
1745524592.8166883,79,-2.912760534807812
1745524592.8817978,78,-10.499075139124512
1745524592.9451737,77,-6.978692882159
1745524593.006627,77,-2.291578634214673
1745524593.072619,77,-0.4482400385673726
1745524593.1353571,76,0.4474553686573124
1745524593.1983597,77,0.832196155644934
1745524593.2633147,77,0.9979147179841799
1745524593.3261528,77,1.1512694706535354
1745524593.3896267,77,1.3365765362887396
1745524593.4516978,79,1.2838228851751854
1745524593.5156443,77,1.2164190336716318
1745524593.579665,79,0.9899098791943386
1745524593.6446524,78,0.9300575398016218
1745524593.7077904,79,0.8305894246190897
1745524593.769648,78,0.6771198521327604
1745524593.8204615,81,-0.06737494919962239
1745524593.8831797,78,-0.5880675441278138
1745524593.944858,81,-1.6089550743685668
1745524594.0097375,79,-2.4803634999427744
1745524594.0726154,81,-3.4522095736906193
1745524594.1246955,79,-4.255257062426802
1745524594.1846528,81,-4.841170020180243
1745524594.250405,79,-4.433761689297984
1745524594.3142226,82,-3.9132317713957483
1745524594.3776631,79,-2.965080472188788
1745524594.4416559,82,-2.3004821086584513
1745524594.5065691,80,-1.648836514823531
1745524594.568613,82,-1.3413820080747785
1745524594.6322038,80,-1.0358629822349217
1745524594.6935763,83,-1.0800640613225758
1745524594.7566965,81,-0.6132743887835586
1745524594.8195317,83,-0.5676739746934942
1745524594.8835068,81,-0.5162723819694954
1745524594.9475555,83,-0.30861524726710843
1745524595.0088563,81,-0.09869042252642024
1745524595.0582993,83,-0.3769462912441459
1745524595.1231825,82,-0.07220955793611261
1745524595.187426,83,-0.01908620740730549
1745524595.2514002,83,-0.13221279323577306
1745524595.3131804,83,0.1862229158526021
1745524595.3760786,83,0.1902293230498988
1745524595.4425251,83,0.027305210726915607
1745524595.5058935,84,0.18496740168936876
1745524595.567358,82,0.27871770740926527
1745524595.6345034,84,0.17796724561856614
1745524595.6965563,83,0.33069045561196453
1745524595.7616284,84,0.2817551582658129
1745524595.8237092,84,0.4656599235202832
1745524595.8885028,86,0.3985138271864974
1745524595.9491162,85,0.37527251891458446
1745524596.0151365,88,0.3807027195248147
1745524596.0763943,85,0.5678996916420842
1745524596.140766,85,0.5183165232501309
1745524596.2016509,82,0.7634141936449448
1745524596.2676957,84,0.758839794916683
1745524596.3319724,82,0.7768634877155383
1745524596.395666,84,0.5907711888842159
1745524596.4583576,79,0.9226894153290495
1745524596.5221765,74,1.184932383330711
1745524596.5864854,92,0.28715352887238843
1745524596.6515646,147,-2.44756652509594
1745524596.7139282,123,-1.1690822236848035
1745524596.7803662,98,0.1822739718684403
1745524596.8409514,86,0.8921442452602357
1745524596.90475,85,1.0259696613286895
1745524596.9686391,81,1.2421244918491468
1745524597.0322926,84,1.3765749200557975
1745524597.094723,82,1.5155734784583257
1745524597.1601498,84,1.3366391264732096
1745524597.2243915,83,1.8371413307173587
1745524597.2878554,85,1.6783586233813144
1745524597.350565,84,1.7656618078124469
1745524597.411939,86,1.9641389839444838
1745524597.476508,87,1.5904451193987548
1745524597.5403194,88,1.7433924832799927
1745524597.6046436,89,1.3974063851013623
1745524597.6682987,92,1.058437033994569
1745524597.7313235,95,1.0985714111023746
1745524597.7779002,98,0.8783930967855476
1745524597.8431633,101,1.9951177889458171
1745524597.8936596,102,1.4571388752988965
1745524597.955057,102,2.0162606129418847
1745524598.0172827,97,3.0507644172531285
1745524598.0809228,94,1.757350508572809
1745524598.1285868,88,6.654787688759493
1745524598.1925867,85,6.002311264863312
1745524598.2563853,80,-5.706223829741218
1745524598.3210535,80,-9.713286451075005
1745524598.384827,76,-4.4775035569068455
1745524598.4478765,77,-0.9595624935620917
1745524598.5122817,75,0.5881108333415765
1745524598.5760598,76,1.2638293394506581
1745524598.6375353,73,1.6215361166860065
1745524598.7005143,76,1.5226116902264826
1745524598.7624218,73,1.8073374674111244
1745524598.8282926,75,1.740385671039208
1745524598.8912258,72,1.7655046999051258
1745524598.953461,75,1.6736484463123364
1745524599.0001414,73,1.6565668011768655
1745524599.0651224,75,1.1330860586613487
1745524599.131002,73,0.9882941191241459
1745524599.194864,76,0.5077090156500881
1745524599.2555454,74,-0.045662762934657763
1745524599.3201094,77,-1.1624610024119322
1745524599.3852692,74,-2.167075562016179
1745524599.4467492,76,-3.4622384919254454
1745524599.5104942,76,-4.716449782650781
1745524599.5743432,77,-5.664970165149769
1745524599.641406,75,-5.731249210529555
1745524599.7033749,78,-5.57902427293752
1745524599.76499,77,-5.059599858013249
1745524599.8170705,78,-4.355544301236812
1745524599.8800662,79,-3.6450482870161673
1745524599.9429579,81,-3.343389057650481
1745524600.0061598,82,-2.85339194499655
1745524600.069599,82,-2.399696353371505
1745524600.1306767,83,-2.3592715160459896
1745524600.1926198,85,-2.1034608603831426
1745524600.2546344,85,-1.7213646922363801
1745524600.3186321,84,-1.508810995362468
1745524600.381451,85,-1.3488995284009007
1745524600.4440494,84,-1.0037305609687635
1745524600.4951496,86,-0.6689128189113629
1745524600.5569546,84,-0.34752457196416575
1745524600.619873,87,-0.4153628837715977
1745524600.6707234,85,0.03814564086673178
1745524600.7340887,89,0.042436564976016555
1745524600.7957764,88,0.24624235221438306
1745524600.8580878,90,0.36426521823188773
1745524600.924292,89,0.38693119702640333
1745524600.987006,92,0.6025454980419935
1745524601.037798,86,1.3880663244309148
1745524601.1001198,86,1.2326983832485958
1745524601.1611502,83,1.6201971471883954
1745524601.2250552,86,1.9494510407217243
1745524601.291402,83,2.076220172838054
1745524601.3546932,85,2.123541366237187
1745524601.4196923,75,2.818606439442216
1745524601.4825299,80,2.6071855457473943
1745524601.547594,128,-0.039568382534109325
1745524601.6091394,142,-1.067819963250681
1745524601.6718726,100,1.326433552662282
1745524601.7367477,86,2.0738857106286224
1745524601.802913,82,1.9906620620352382
1745524601.8646314,81,1.9955803178841456
1745524601.929294,79,2.2094521152220983
1745524601.9747627,80,2.414038490157323
1745524602.039872,79,2.380890393227303
1745524602.1040487,79,2.4519926753426438
1745524602.1659427,79,2.526932894346675
1745524602.2335033,79,2.3206398962605057
1745524602.2943187,79,2.489400526541699
1745524602.358036,79,2.037924771226896
1745524602.4232965,82,1.4929587594407105
1745524602.4855187,82,1.4517783407461324
1745524602.5338771,85,0.7958677759590729
1745524602.5970867,85,0.6038992926481641
1745524602.660109,91,0.12277030481345941
1745524602.7237346,89,1.2787345031206696
1745524602.7868996,91,1.4779260192041623
1745524602.851263,91,0.9982619569701441
1745524602.9165897,91,2.2045809216200842
1745524602.9787655,84,1.1232585541882014
1745524603.04214,83,2.988094048292247
1745524603.102751,75,6.963682177599618
1745524603.1674776,76,-2.136291165277979
1745524603.2288725,69,-11.310226910931476
1745524603.2927322,71,-8.142144364753747
1745524603.3564677,68,-2.5015631308077584
1745524603.4230747,70,-0.9405852596916722
1745524603.4841886,66,-0.1680806704022535
1745524603.5484931,69,0.09391463329353567
1745524603.6103356,66,0.382726604201034
1745524603.6606448,68,0.30940708796105554
1745524603.7260058,66,0.6395695678963609
1745524603.786381,68,0.5488362439993075
1745524603.8510983,65,0.6727993936532153
1745524603.9145954,67,0.7227961145524828
1745524603.9615037,65,0.7145165397740896
1745524604.0277088,67,0.37747408090078505
1745524604.091868,66,-0.20925658612181408
1745524604.1553206,67,-0.6712862214525193
1745524604.2177937,66,-1.0597355354384381
1745524604.2826982,67,-2.5156995322225706
1745524604.3453686,66,-3.1824111306164373
1745524604.4073496,66,-3.6400831763030563
1745524604.4702272,67,-4.7873284470284245
1745524604.5359056,67,-5.259569188001175
1745524604.5957458,68,-5.2388180006559795
1745524604.661378,68,-4.703610531181335
1745524604.724018,70,-4.070991287170406
1745524604.7722769,69,-3.518532255639495
1745524604.8364933,71,-2.8899259362415597
1745524604.9003794,69,-2.1770112658645937
1745524604.9501402,71,-2.1796791926468715
1745524605.0133,69,-1.8777897877144758
1745524605.0757682,71,-1.55140307563497
1745524605.1377394,68,-1.2459794346548394
1745524605.186987,70,-1.184523837467391
1745524605.2491376,68,-0.7784097945861088
1745524605.3014567,72,-0.8942036454885098
1745524605.363521,70,-0.6499530029120195
1745524605.4255705,73,-0.48399991762107764
1745524605.491239,72,-0.19293425410433995
1745524605.5547721,73,-0.006540641067709796
1745524605.6163764,67,0.4704018784477455
1745524605.6792912,69,0.40419691700243376
1745524605.7429175,65,0.7786603877628273
1745524605.8063357,68,0.8278984932189597
1745524605.869301,66,0.9886583145240746
1745524605.9338098,66,1.2097576296895107
1745524605.9936953,57,1.9431288064159484
1745524606.060032,65,1.5482497696153923
1745524606.121797,116,-1.082583401093034
1745524606.185806,126,-1.5090921096399477
1745524606.250002,86,0.5717716803698636
1745524606.3155444,70,1.3429568893600712
1745524606.3813941,64,1.660079692537629
1745524606.4408004,63,1.7240792355555636
1745524606.4890182,62,1.8260826101032102
1745524606.553348,62,2.0010979198182266
1745524606.6174688,61,2.013812008858526
1745524606.6701648,62,2.0854619972146264
1745524606.7322264,61,2.3051733591233807
1745524606.7964525,61,2.4272498537405562
1745524606.8599453,62,2.675078949681857
1745524606.9221091,61,2.2401083820355074
1745524606.983855,62,2.1262522954513234
1745524607.0477457,62,2.075085866467543
1745524607.1106837,66,1.13688277494938
1745524607.1751492,68,1.3463303196339151
1745524607.2373178,72,1.244634297773271
1745524607.3000693,73,1.9833571418202296
1745524607.3518353,77,2.091251836848299
1745524607.4137917,77,1.8167494880250654
1745524607.4777825,78,2.800868059903851
1745524607.5417795,73,1.7664127614386436
1745524607.6057205,72,4.181064172844112
1745524607.668281,65,7.372640557555364
1745524607.7306187,66,-2.508904512573274
1745524607.7966018,61,-11.490563842970655
1745524607.8602486,64,-8.39857700087323
1745524607.9239545,61,-2.775981797641355
1745524607.9881246,63,-0.6206980742621859
1745524608.0498333,61,0.3940987258006565
1745524608.1000347,64,0.4886045392114422
1745524608.1624432,62,0.9663345218932522
1745524608.2270901,65,1.1251245542530528
1745524608.2886724,63,1.312153286268129
1745524608.3536544,66,1.4837719939610947
1745524608.4165838,64,1.8255333824550017
1745524608.4780145,67,1.7993538941340637
1745524608.541524,66,1.9956825670858187
1745524608.603698,68,2.163748688801786
1745524608.6696494,68,2.286426728571106
1745524608.7309287,69,1.9139568347228306
1745524608.7932427,68,1.370862446106973
1745524608.8571768,70,0.4735995046370989
1745524608.9221394,71,-0.21402461127764427
1745524608.9848375,72,-1.0970214143785544
1745524609.0367405,73,-2.0749848601418237
1745524609.0988405,74,-2.516325291440933
1745524609.1616235,75,-2.6382229148428222
1745524609.211491,75,-2.0948358844731567
1745524609.2716618,77,-1.4227200497959127
1745524609.3362548,76,-0.7094704248101293
1745524609.4002717,78,-0.11156987504458593
1745524609.464238,77,0.22584952149038307
1745524609.529563,80,0.3320651447743308
1745524609.5907722,78,0.8073728178703274
1745524609.6563299,81,0.8952786377666615
1745524609.7187564,79,1.1849458711478622
1745524609.7822838,82,1.1383971044868517
1745524609.8431365,80,1.4408282145167486
1745524609.9064002,83,1.4211617499376459
1745524609.970331,81,1.6348826337685045
1745524610.029697,84,1.7276499781986498
1745524610.0798075,83,1.8298000644508168
1745524610.1440868,87,1.705778623211261
1745524610.2075403,85,1.950061918372521
1745524610.2693496,90,1.6543780092814357
1745524610.31872,87,1.9088650825523266
1745524610.3814,88,2.198613586565623
1745524610.4451845,83,2.553554522138555
1745524610.5101078,85,2.323179826794767
1745524610.5740407,83,2.4230871389786506
1745524610.6360228,86,2.2408881244658216
1745524610.683969,84,2.220225108499423
1745524610.747142,83,2.2296262980520978
1745524610.8137338,74,2.675852196500048
1745524610.876784,104,1.0174469216664828
1745524610.9257982,156,-1.7077337431358757
1745524610.9862506,128,-0.1345672723769944
1745524611.0483403,99,1.377608817853841
1745524611.113294,88,1.9205688794827402
1745524611.1751869,86,2.112476012021622
1745524611.2378387,86,2.154899679993928
1745524611.3010993,86,2.2402568703342984
1745524611.3616776,86,2.271853506687024
1745524611.4266508,87,2.25913324857921
1745524611.4903157,86,2.3870532294786067
1745524611.5538697,88,2.217174472736767
1745524611.6169038,87,2.4283168276664426
1745524611.6713405,90,2.1058614225943524
1745524611.731326,89,1.769711162311208
1745524611.7861838,92,1.7535036577078897
1745524611.8397741,92,1.0286700974892726
1745524611.894048,97,0.6711937021311987
1745524611.9496906,98,0.8959795451173624
1745524612.0016143,103,0.7668121922327569
1745524612.0579467,103,2.087716138134033
1745524612.1120625,107,1.1048446408946797
1745524612.1693342,105,1.9612924963825484
1745524612.2290702,104,2.328153753251675
1745524612.2843642,97,1.301503045010831
1745524612.3384,96,6.526026006269935
1745524612.3988636,90,4.297676941979291
1745524612.4559946,90,-8.841682208068896
1745524612.5152082,87,-11.922374336423122
1745524612.570982,88,-6.272777670686963
1745524612.6303463,87,-2.0637762082730022
1745524612.6795206,89,-0.7685008603025256
1745524612.7397132,87,-0.32391737858298697
1745524612.8040476,90,-0.22334524600219652
1745524612.8501954,88,-0.013707758953585447
1745524612.9119308,90,0.023356129657905456
1745524612.9775524,89,0.21531073354641972
1745524613.0426788,90,0.26945014880214746
1745524613.1020281,89,0.3707006284632701
1745524613.153972,91,0.1841823977524788
1745524613.2133808,90,0.10919071736628183
1745524613.2647986,90,0.010773883901384451
1745524613.3279977,91,-0.3161879657788935
1745524613.3907053,90,-0.8795573418945781
1745524613.4553397,90,-1.668070562944827
1745524613.5152626,89,-2.586947064013414
1745524613.580309,91,-3.597562128021607
1745524613.644541,89,-4.366428422564188
1745524613.709679,91,-5.417615720727676
1745524613.7729404,90,-5.462049567841399
1745524613.8288682,91,-4.974255954485334
1745524613.884209,89,-4.342051888274103
1745524613.940646,92,-3.6828488047178514
1745524613.995713,89,-2.9438740139627733
1745524614.0506823,92,-2.668880973060641
1745524614.1022964,90,-2.129617846498036
1745524614.1491892,92,-2.2047622173667842
1745524614.2024858,90,-2.0357246302880543
1745524614.2575002,93,-2.0099524381212266
1745524614.3090997,90,-1.9398391055522015
1745524614.3707836,93,-2.039726325470049
1745524614.4255798,90,-1.760832174007721
1745524614.4769065,93,-2.0197635137298313
1745524614.5299218,90,-1.7092214840680242
1745524614.5854583,93,-1.7167186864452337
1745524614.6365998,93,-1.8866667903163594
1745524614.6862912,95,-1.9193739912971315
1745524614.749369,94,-1.7069588082179814
1745524614.79852,96,-1.837427272294288
1745524614.8622112,93,-1.6825706377165393
1745524614.9159899,92,-1.3250824201508182
1745524614.971213,89,-0.9507775193687216
1745524615.0192227,89,-1.0433607103600153
1745524615.0706117,88,-0.8071524011053515
1745524615.13048,89,-0.7328408731655848
1745524615.1813385,86,-0.764532916237483
1745524615.2327096,78,-0.11885622230990256
1745524615.2743573,87,-0.4351034509064968
1745524615.3360374,143,-3.4332621881486816
1745524615.3929715,139,-2.988508966179584
1745524615.445892,105,-1.155171191713448
1745524615.4952629,91,-0.42731267582813937
1745524615.542565,86,0.09546222236234692
1745524615.6057732,85,0.19606684126123186
1745524615.6536756,83,0.37419854156578136
1745524615.7003217,84,0.42784983736077153
1745524615.753148,83,0.5473001240370574
1745524615.8044705,85,0.6540998901682533
1745524615.8565521,83,0.69417459567399
1745524615.9058065,86,0.7415306132270163
1745524615.956327,84,1.0247801346383119
1745524616.0171719,86,0.35440441747789175
1745524616.0827572,85,0.4315833054030866
1745524616.1298711,89,-0.0565164483256575
1745524616.1921804,88,-0.35002970292559055
1745524616.2420275,93,-0.23024371909659003
1745524616.3049042,93,-0.3709556901275013
1745524616.3688884,98,0.5410813137393937
1745524616.4336715,96,0.671099380452084
1745524616.4947948,99,0.6611228244094178
1745524616.5584052,94,2.044129263530891
1745524616.6213324,93,0.4293711138206451
1745524616.668577,87,4.333839111174646
1745524616.716191,85,6.416316901608555
1745524616.776758,80,-4.183747336387474
1745524616.8249488,80,-11.50540963583114
1745524616.8759396,77,-7.438376011508161
1745524616.9355977,78,-2.7279999996190267
1745524616.9995596,77,-0.7241752896674896
1745524617.0630815,78,0.006826437266614693
1745524617.1292806,77,0.5061093973578725
1745524617.1913388,78,0.8554568208845039
1745524617.2563472,78,0.9390212396230037
1745524617.3200548,78,1.0131243594568373
1745524617.3841434,78,1.2202566229938108
1745524617.4455626,78,1.147912030183786
1745524617.510283,79,1.0969775739339414
1745524617.5741308,77,1.3365988231820123
1745524617.620545,78,1.211203468903562
1745524617.6863477,77,0.942959444177097
1745524617.7498946,78,0.48922789427841984
1745524617.8151383,76,0.07966150340628775
1745524617.8778973,78,-0.9095899636211031
1745524617.9425116,76,-1.707410540295297
1745524618.0054245,78,-2.5756733595323666
1745524618.0700734,75,-3.1518497844855378
1745524618.132549,78,-3.549960408963916
1745524618.194867,76,-3.249947758531929
1745524618.2593226,78,-2.9219141613494677
1745524618.313781,75,-2.0651431143862227
1745524618.3681395,77,-1.4319084884172222
1745524618.4323785,75,-0.8065814660525845
1745524618.4968314,77,-0.45760814797262883
1745524618.5593324,74,0.027465706172340454
1745524618.6234107,77,-0.039110723599798725
1745524618.6862142,74,0.21005053323286393
1745524618.7464511,77,0.19206538497500603
1745524618.797545,74,0.39843422692361097
1745524618.8486567,76,0.28385680163175975
1745524618.9126644,74,0.3691300455677271
1745524618.9716947,75,0.47191356318920663
1745524619.0221448,73,0.5512345029629366
1745524619.07675,75,0.30254321928831907
1745524619.1284208,73,0.6053303411658284
1745524619.1878703,75,0.630637340392461
1745524619.24499,74,0.6503428690254625
1745524619.306634,74,0.7213472727064976
1745524619.3689027,76,0.6968279469501693
1745524619.432882,77,0.7431134783787336
1745524619.497105,74,0.8216951668279249
1745524619.559763,72,0.9568775691175737
1745524619.6247218,70,1.2399863950787857
1745524619.6784012,69,1.239989142081507
1745524619.734639,69,1.1432335540683685
1745524619.7975044,68,1.0935863622611086
1745524619.8555453,65,1.3694922577598854
1745524619.9094555,55,2.0054282561959362
1745524619.97375,81,0.5104184847682518
1745524620.0330825,132,-2.0553516324425267
1745524620.0991821,108,-0.7406664532853782
1745524620.16076,79,0.7931053419181229
1745524620.2240574,71,1.3013277497082636
1745524620.2746427,65,1.5688374762739237
1745524620.3381908,66,1.6012677916315052
1745524620.3980505,63,1.9098715581680508
1745524620.4476407,65,1.750522834976178
1745524620.5117154,62,2.0828234471490923
1745524620.5766046,66,2.0822246824134156
1745524620.6403623,65,1.9619070740112698
1745524620.7035077,68,2.0488409411143342
1745524620.754307,66,2.0106363333566613
1745524620.8144548,70,1.5329755181712814
1745524620.878886,69,2.107711427638031
1745524620.9405656,74,1.131191751113567
1745524621.006172,73,0.8376861130372468
1745524621.0679865,77,0.8995548360946692
1745524621.118635,78,0.8806774776857669
1745524621.1722035,82,2.018919719218097
1745524621.224884,82,1.5381826058810786
1745524621.2789016,84,2.3029426726530673
1745524621.330331,81,3.0020219631949194
1745524621.381678,78,1.8599836933150526
1745524621.4324787,73,7.393362900529976
1745524621.4818308,71,5.929004488064732
1745524621.52957,68,-6.424030741390359
1745524621.5745122,67,-9.763584893478864
1745524621.6240914,66,-4.413887319536579
1745524621.6704938,66,-0.6918507259831994
1745524621.732624,67,0.8056862530102102
1745524621.7961702,67,1.5680159634675706
1745524621.8614974,67,1.9979098545033829
1745524621.924757,67,2.3464616538349716
1745524621.9898124,69,2.7408892149776727
1745524622.0401316,68,2.932004266595111
1745524622.096458,70,2.6511666489195718
1745524622.1506186,69,2.755109795737977
1745524622.2029753,72,2.617398107085274
1745524622.2560976,70,2.675915043751041
1745524622.3073165,73,2.323549330335015
1745524622.358971,70,1.9572786025387736
1745524622.4074626,73,1.3958456439391387
1745524622.4599938,72,1.0077209764305115
1745524622.507708,74,0.14783970910176802
1745524622.5613987,72,-0.6248244015701967
1745524622.6086698,75,-1.5817698816080044
1745524622.6601038,73,-2.214654270422199
1745524622.7165265,76,-2.768251412806729
1745524622.7777019,74,-2.3431514666984627
1745524622.8421986,77,-1.7920212802167153
1745524622.887584,75,-1.0687194779796596
1745524622.9366987,77,-0.5362817327084384
1745524622.982734,76,0.013694194369913981
1745524623.0350432,79,0.2598402824823983
1745524623.0925333,77,0.7083156647692618
1745524623.1428175,81,0.52172468515881
1745524623.1898744,80,0.6277211803114034
1745524623.2378335,82,0.7863474983190424
1745524623.3771217,81,1.0155840187517682
1745524623.427426,83,0.8927724746707293
1745524623.472572,82,0.9568103761785471
1745524623.5200214,82,1.1450579233255629
1745524623.5693564,83,1.0414700323601416
1745524623.6177485,84,0.9814209816487005
1745524623.6655602,84,1.021752078207047
1745524623.7131798,86,0.8414089836743306
1745524623.761139,87,1.073744571662902
1745524623.8087103,85,1.3146916000968498
1745524623.8563652,83,1.2639546942055429
1745524623.904214,82,1.4357496133204437
1745524623.9527214,84,1.434574324390823
1745524624.015903,83,1.5344508000283548
1745524624.0628266,84,1.5307250414764033
1745524624.1115777,80,1.6923287442247004
1745524624.1716511,75,2.055259416033243
1745524624.221056,94,0.990843874714197
1745524624.2688737,149,-1.8382847352406166
1745524624.3321576,125,-0.3188842184137002
1745524624.379334,99,1.0161535739715193
1745524624.4244475,86,1.6908265204675184
1745524624.4747121,87,1.8053923761926987
1745524624.5210238,83,1.8982723225847558
1745524624.5700505,85,1.6086866414432262
1745524624.6335738,83,1.7067263492930405
1745524624.6970596,86,1.600742017934067
1745524624.7575366,84,1.6166494410387369
1745524624.820386,88,1.3597855748777992
1745524624.8692527,86,1.774285718930062
1745524624.9323828,89,1.6043101296276205
1745524624.980225,88,1.3179622002340041
1745524625.0256877,92,1.4260783415025409
1745524625.073447,91,0.9902920157866753
1745524625.1215012,96,0.435782858431188
1745524625.1696272,97,0.6372795178923261
1745524625.2189832,101,0.5811708472187274
1745524625.2651126,102,1.805544277084099
1745524625.3132489,104,0.9541199988570684
1745524625.3628416,102,1.5106957661690192
1745524625.4100997,100,2.383816950228785
1745524625.4582922,96,1.1363438218815367
1745524625.5212514,91,5.879499977241382
1745524625.5857117,88,5.016069136914944
1745524625.6493638,85,-6.860846393508479
1745524625.7108037,84,-10.987793127823743
1745524625.7582378,82,-5.73010176908965
1745524625.823431,82,-1.771801772534105
1745524625.8881106,81,-0.5277224183603844
1745524625.949664,82,-0.08946523663564143
1745524626.0155282,79,0.4885157927571715
1745524626.081216,81,0.5213476711437908
1745524626.1433322,79,0.6860293878771335
1745524626.2066596,81,0.6633741529124224
1745524626.2660024,79,0.5925176351484627
1745524626.331371,81,0.33061306301284965
1745524626.3935244,79,0.43798213308642886
1745524626.4592764,81,0.07467799879133086
1745524626.5214996,79,-0.21848650774899347
1745524626.5887983,82,-0.726510035827046
1745524626.6494317,80,-1.2924058824299554
1745524626.699143,83,-2.406099880377896
1745524626.7625551,80,-3.1929090836642064
1745524626.8245614,83,-4.41737253093622
1745524626.8912876,80,-5.309478033476524
1745524626.952532,82,-5.949084713604135
1745524627.0181506,80,-6.132476392143591
1745524627.079397,83,-6.112769809366546
1745524627.1299126,80,-5.288514588749813
1745524627.1916282,83,-4.815987163401294
1745524627.2559116,81,-4.113192538531069
1745524627.3199167,83,-3.829882721583275
1745524627.3841786,81,-3.403900263992603
1745524627.4455912,83,-3.088867232988549
1745524627.5090275,82,-2.9838811797396274
1745524627.572734,83,-2.8887579705103867
1745524627.6342993,83,-2.520174822647898
1745524627.6988306,83,-2.286777316245315
1745524627.7621677,82,-2.0602108682681592
1745524627.8262558,83,-1.9905139579852498
1745524627.8714979,83,-1.8075721997196783
1745524627.937148,83,-1.6611406980521786
1745524628.0004206,85,-1.633956773695598
1745524628.0665216,84,-1.3662557735291543
1745524628.1282673,88,-1.455748794386019
1745524628.1898746,88,-1.3624385387486586
1745524628.253885,87,-1.3120307306998997
1745524628.3059342,84,-1.1757154741450941
1745524628.3674495,86,-1.0750194167746385
1745524628.4161403,84,-0.9221141732574254
1745524628.4783459,86,-0.9038101534484517
1745524628.54112,83,-0.40081497940355826
1745524628.6069834,83,-0.33286466093388656
1745524628.6689286,74,0.16086461131598884
1745524628.7195203,106,-1.3146715784409855
1745524628.7833323,151,-3.5064711809222935
1745524628.8453276,123,-1.9606840260100178
1745524628.9089038,96,-0.3953292811589968
1745524628.9692354,90,0.25183360165950797
1745524629.0357707,85,0.7010559383482582
1745524629.098428,87,0.7261867534325788
1745524629.1626985,84,1.2115828846446077
1745524629.22262,86,1.1152212919780966
1745524629.2867486,84,1.432585233923764
1745524629.3539245,87,1.8281128096642703
1745524629.4177134,86,1.8396825024447052
1745524629.4805458,88,2.1170104404894556
1745524629.5426767,88,2.29528826875768
1745524629.6046152,90,1.983116705478397
1745524629.6567287,89,2.587002748710729
1745524629.7162168,93,1.7667907255281237
1745524629.7828176,94,1.458853961197387
1745524629.8456776,97,1.6542515180844068
1745524629.9087183,98,1.8026066178768376
1745524629.9704688,101,2.7690649918111045
1745524630.0361292,102,1.9078446022360103
1745524630.0976794,101,2.9880627024419164
1745524630.1634336,99,3.5304316955302024
1745524630.2268736,93,2.7182888488562504
1745524630.289556,90,7.873436493409331
1745524630.3544924,86,5.049584253154005
1745524630.414082,84,-7.199412973684977
1745524630.4805965,81,-9.128538050360595
1745524630.540494,82,-3.725620194389174
1745524630.6036913,80,-0.27379718528108743
1745524630.667493,82,0.804128003331948
1745524630.7333567,81,1.2939925894816344
1745524630.7955534,83,1.462169002437164
1745524630.858775,80,1.8436196311588633
1745524630.9211113,84,1.9252544435814039
1745524630.9851007,81,1.9877077335157691
1745524631.0362716,84,1.7728829788971927
1745524631.0961206,81,1.9551051665419605
1745524631.14845,84,1.5186356826623553
1745524631.2070396,81,1.5163483087792995
1745524631.2726765,84,1.2616809062777783
1745524631.3364513,82,0.9633562438290469
1745524631.4003892,85,0.05230392264186501
1745524631.4633698,82,-0.49428460432181603
1745524631.526162,85,-1.3186317755739823
1745524631.5913537,83,-2.243652668015939
1745524631.6550992,85,-3.2147222237792716
1745524631.7156663,82,-3.738679370722395
1745524631.7791255,84,-4.094194193931507
1745524631.8406994,82,-3.4632435744688395
1745524631.903717,84,-2.8400831443000873
1745524631.9672658,82,-2.158527544214277
1745524632.0306287,84,-1.5933764912200545
1745524632.082303,83,-0.8775980478683896
1745524632.1271868,83,-0.6089606300518635
1745524632.1867433,82,-0.28742381182484333
1745524632.2389102,82,-0.061969592161584375
1745524632.2879958,82,-0.22182036544489858
1745524632.3400114,82,-0.11526456219201353
1745524632.395158,83,0.050427666923454906
1745524632.4488611,82,0.04965230475219262
1745524632.497937,83,-0.02569783700055739
1745524632.5534294,82,0.09081328535521704
1745524632.608864,83,0.11882870070515783
1745524632.6617103,81,0.2622588875243368
1745524632.7123625,84,0.1831586844759614
1745524632.7729144,83,0.32334779255600354
1745524632.829136,85,0.1305232772487268
1745524632.8867738,85,0.004359358211177167
1745524632.9477105,88,-0.05655510045266832
1745524632.9957662,83,0.19683218632612398
1745524633.0517597,84,0.01313674680813981
1745524633.1015291,80,0.22398940180085924
1745524633.1560483,83,0.1913077238633064
1745524633.2183309,80,0.5045859605011009
1745524633.2643108,82,0.41475004122488734
1745524633.3119938,76,0.7024476078601749
1745524633.360966,71,1.0616467302817858
1745524633.4121418,95,-0.23829737610064528
1745524633.4737759,147,-3.015377978505228
1745524633.518136,118,-1.3568139563470645
1745524633.5676327,94,0.14861987861314852
1745524633.6157277,84,0.8555188237359159
1745524633.677927,83,1.1503489389424895
1745524633.7236142,80,1.3900998022769828
1745524633.7741287,81,1.3938156626295473
1745524633.837351,80,1.558068688298187
1745524633.8825047,81,1.646366501716002
1745524633.9460459,81,1.7823307889611109
1745524633.9940257,82,1.7514492504998147
1745524634.0457954,83,2.1229304174057564
1745524634.1074305,84,2.0252278015947267
1745524634.169625,84,1.704596781212561
1745524634.2349863,86,2.004377864341495
1745524634.3002665,88,1.2614414489264334
1745524634.3623517,90,0.9830969167776755
1745524634.4256985,92,1.1762287325224805
1745524634.490451,94,1.2013226721009085
1745524634.5505302,98,2.2675935750706326
1745524634.600374,98,1.630959631244599
1745524634.6635573,99,2.406688250923519
1745524634.727691,95,3.148937147274399
1745524634.7923787,92,2.2208466396514988
1745524634.8563418,86,7.550946613033964
1745524634.916266,85,5.5216126536333014
1745524634.968054,80,-6.500556997537922
1745524635.0214653,81,-9.438863194276507
1745524635.07424,77,-3.805777158413971
1745524635.1281407,79,-0.5766720090100188
1745524635.1801395,76,0.757217311737671
1745524635.2355084,79,1.2513543457245495
1745524635.2839286,76,1.707951128592665
1745524635.3485265,79,1.8300230677167728
1745524635.4035146,77,2.042984189482804
1745524635.4535947,79,2.0139726881205013
1745524635.501907,76,2.2529824464547956
1745524635.5558312,79,1.889347441873979
1745524635.6092637,77,1.867555019681233
1745524635.6753144,79,1.7178798417900567
1745524635.7245214,77,1.5867751704412
1745524635.7854812,78,1.05254660120709
1745524635.8343616,76,0.4612672362211985
1745524635.8816938,79,-0.25162809040681666
1745524635.9300663,77,-0.9456728630419307
1745524635.99155,78,-2.167803498815713
1745524636.0407856,77,-3.093379267340061
1745524636.0899894,78,-3.92242480447502
1745524636.1343994,77,-4.2102169331517025
1745524636.1842377,78,-3.899208272105372
1745524636.2319324,78,-3.3011437738452782
1745524636.2799447,78,-2.715687491196595
1745524636.3274338,78,-2.183095175561246
1745524636.374547,79,-1.8147656046528478
1745524636.420869,79,-1.4828189830885115
1745524636.471733,79,-1.169691596460615
1745524636.5181863,80,-1.026067775874036
1745524636.5666523,79,-0.9251322644952377
1745524636.6290526,82,-0.9549678634421015
1745524636.679072,80,-0.7464326062025888
1745524636.7420106,82,-0.9467910509806787
1745524636.804715,80,-0.7770530905671618
1745524636.870192,84,-0.6871415388976665
1745524636.9357095,82,-0.5885120394823875
1745524636.9986587,85,-0.7329940331584699
1745524637.056955,85,-0.6287162063366485
1745524637.114483,89,-0.8463354669200163
1745524637.1719162,85,-0.32346245954964914
1745524637.237823,85,-0.05073542816693677
1745524637.2978532,81,0.07223832390306895
1745524637.3589425,84,-0.016295132673020185
1745524637.4230516,82,0.2994198089010992
1745524637.487112,84,0.3767117125269862
1745524637.5522294,80,0.6425574047602857
1745524637.6148367,76,1.06771944375576
1745524637.679266,80,0.996909696773836
1745524637.7424798,134,-1.8401534783073394
1745524637.8056731,136,-1.6632503999993595
1745524637.867569,103,0.24142008830199835
1745524637.9311156,87,1.1308524723795066
1745524637.9937863,87,1.3608530617466867
1745524638.0575032,84,1.634137655619415
1745524638.1183536,84,1.846696461151836
1745524638.1797566,82,2.1669542953516014
1745524638.2466633,83,2.064650183169053
1745524638.2985008,83,2.1135004886194495
1745524638.3571196,84,2.2939190726996026
1745524638.405262,84,2.475482860467546
1745524638.4596698,85,2.386875827272971
1745524638.5113053,86,2.100958026805645
1745524638.5770564,87,2.29838414849695
1745524638.6274395,89,1.8076405340478638
1745524638.6755087,90,1.1147199979087565
1745524638.7288487,93,1.2493703405741305
1745524638.7792988,94,1.2444060563054091
1745524638.8442404,99,2.105216497690046
1745524638.9075933,98,2.196701766913427
1745524638.9554715,101,1.751680358516639
1745524639.017088,96,3.267634519781436
1745524639.0795152,95,2.028213665455802
1745524639.1460087,88,4.939068952116817
1745524639.2092707,87,7.524307280893389
1745524639.2706563,81,-1.7937102655422459
1745524639.3476906,82,-10.048627269478072
1745524639.4148655,78,-6.425176075890402
1745524639.4791014,80,-1.598039548077426
1745524639.5443447,77,0.025987649003848645
1745524639.603286,80,0.26676844728506577
1745524639.6576068,77,0.789585614191517
1745524639.7102382,80,1.0505522480936715
1745524639.779641,78,1.3756880004063312
1745524639.8362565,80,1.290525155958604
1745524639.9008222,77,1.430837204778062
1745524639.964326,79,1.3088465355726537
1745524640.034021,77,1.3775218682436527
1745524640.0787187,79,1.0579815850505234
1745524640.1340096,77,0.9280845177163046
1745524640.199696,79,0.45835852272584754
1745524640.2603686,78,-0.05601019020256537
1745524640.3146098,79,-0.6210084898855868
1745524640.379792,78,-1.4101542997049732
1745524640.4432907,79,-2.5166175198198992
1745524640.5004926,79,-3.515963861778409
1745524640.5621858,79,-4.386481180215549
1745524640.6257544,78,-4.735833016966723
1745524640.6828694,79,-4.639532880474636
1745524640.7469637,79,-4.153555348599503
1745524640.8104746,78,-3.474973837266363
1745524640.8737624,80,-2.9098113276745434
1745524640.9392784,79,-2.3321369469663935
1745524640.9933517,80,-2.0527331849455495
1745524641.0456705,79,-1.6732443130083503
1745524641.096041,80,-1.5198806756615975
1745524641.1471303,78,-1.3761870023627494
1745524641.201049,81,-1.3705012325958137
1745524641.2538533,79,-1.1972471793223105
1745524641.3083158,81,-1.3662210530475836
1745524641.3702784,78,-1.1361514595191913
1745524641.4169006,82,-1.1431548668880576
1745524641.463858,79,-0.7605739196151027
1745524641.5135684,82,-0.8152827005490042
1745524641.5590796,82,-0.7513990952529366
1745524641.6123152,84,-0.6615431034722157
1745524641.6639109,79,-0.3649584692956245
1745524641.7133982,79,-0.34422214882574004
1745524641.7661157,76,-0.12274419245034907
1745524641.8182046,79,-0.18576497708036044
1745524641.8680596,77,0.05906694043302496
1745524641.9233222,78,-0.12759460173935017
1745524641.9728603,71,0.2806386323002138
1745524642.0218537,70,0.6595254273452817
1745524642.0733714,113,-1.6666571495012317
1745524642.1241975,141,-3.056589954556813
1745524642.177865,103,-0.7843908139561933
1745524642.2398756,86,0.029756434379736074
1745524642.2901108,78,0.5215520058646237
1745524642.352167,78,0.7024938176718101
1745524642.416688,76,0.8342127782375424
1745524642.4789262,77,1.0339439381281248
1745524642.5272915,77,1.2252692097191256
1745524642.5901492,78,1.2623144452180566
1745524642.637633,78,1.1721960037893067
1745524642.6865485,78,1.2611932411752127
1745524642.7465994,79,1.6378871397621766
1745524642.7971215,79,1.3566825879728257
1745524642.844737,82,1.3171671414598047
1745524642.890638,82,1.579972783483428
1745524642.940748,85,0.719814153564323
1745524643.0551534,86,0.793623914414985
1745524643.114763,91,0.5629187253092272
1745524643.1637528,92,1.357252219137386
1745524643.2243042,96,2.04331063546595
1745524643.2883267,94,1.476289363470019
1745524643.3537943,95,2.771439787483943
1745524643.4156346,89,2.263349772865131
1745524643.4764946,87,3.194825852704647
1745524643.5297952,81,8.091680180525332
1745524643.5748415,80,1.2853226841490253
1745524643.6350346,76,-9.236400292112318
1745524643.6863675,78,-8.238659666265718
1745524643.7339644,75,-2.5931459465170725
1745524643.7820618,77,-0.07491171890256965
1745524643.8455427,75,0.9737434715004833
1745524643.8930454,77,1.310499655297078
1745524643.9410286,75,1.7433165390906398
1745524643.9889765,77,1.7535770991767547
1745524644.036512,75,1.859160107145926
1745524644.1016188,78,1.8429355555532863
1745524644.1482892,76,2.0264475613050683
1745524644.198545,78,2.0201669354616705
1745524644.244313,77,2.09521654585788
1745524644.2928245,78,1.7522306353260868
1745524644.3596644,77,1.4935672607847494
1745524644.4194536,78,1.1299907960929674
1745524644.485788,78,0.5482618039668351
1745524644.5472367,78,-0.2937685337212811
1745524644.613394,78,-1.368823776028943
1745524644.6665545,78,-2.3784668601382988
1745524644.7218785,79,-3.195245195478746
1745524644.7712698,79,-3.7111071519201886
1745524644.817794,79,-3.6254240886237996
1745524644.8879967,78,-3.0178489096398646
1745524644.9431298,79,-2.456402047809005
1745524645.0095959,78,-1.6458990673420013
1745524645.0606759,80,-1.1601237256020334
1745524645.1193426,78,-0.853110542552787
1745524645.174618,80,-0.6794539582321955
1745524645.2270505,78,-0.3967802208951947
1745524645.2770822,81,-0.44271577061168166
1745524645.3258264,78,-0.13338087658288067
1745524645.3814974,81,-0.2428796980161545
1745524645.4359858,78,0.09369345433718046
1745524645.4816728,81,0.06508098110732907
1745524645.5296361,78,0.15487399444893735
1745524645.5792754,81,0.03723796899423293
1745524645.6427014,79,0.1981932467851224
1745524645.7056913,81,0.06717872003027314
1745524645.7701545,79,0.19810115901545955
1745524645.832469,82,0.19592509826745452
1745524645.8970132,80,0.30399414466569064
1745524645.9479232,83,0.12949246099459644
1745524646.0076065,83,0.17069426027879442
1745524646.05835,86,0.08795630260457399
1745524646.121263,81,0.4498471886722044
1745524646.1849518,81,0.37355056438384404
1745524646.2496312,79,0.36693439602446415
1745524646.3094451,81,0.34647917563251346
1745524646.374766,79,0.5840760070619206
1745524646.4406712,80,0.6220055831021872
1745524646.4995487,74,0.9704092536502796
1745524646.5641923,70,1.0998493451644458
1745524646.6255863,110,-0.9522561345395228
1745524646.6915572,144,-2.5666380889219305
1745524646.7553282,109,-0.7211874325183736
1745524646.8161788,88,0.4262071354623016
1745524646.8812268,82,0.8235969668260505
1745524646.9449375,79,1.171586920844127
1745524647.0065687,79,1.287294139791614
1745524647.072213,78,1.4588788366213072
1745524647.1355395,80,1.5661565909175144
1745524647.1988168,79,1.6887494020106746
1745524647.2618117,81,1.65583845739343
1745524647.3273842,80,1.7494282049066832
1745524647.3903034,83,1.853801799491127
1745524647.4404385,81,1.853276703134359
1745524647.5026321,84,1.6549024462934878
1745524647.5647652,84,1.9014239814813405
1745524647.6314337,88,1.0315645580528936
1745524647.6922827,88,0.887424161432755
1745524647.7445147,93,0.6984914733201155
1745524647.8072708,93,1.372457403168676
1745524647.871145,98,1.915984007702641
1745524647.9341333,97,1.2412537234161176
1745524647.9963083,98,2.52060098925039
1745524648.0597818,92,2.3009566942657496
1745524648.1211565,91,2.5451711880785246
1745524648.1826236,83,7.901329185799348
1745524648.2465813,82,2.3442572203892187
1745524648.3104978,78,-8.942879550641534
1745524648.3739216,79,-8.873572838534852
1745524648.4397256,76,-3.1353908283969316
1745524648.501297,77,-0.4548907502718018
1745524648.5470264,76,0.6450035511783314
1745524648.612308,77,1.1298342962112828
1745524648.6740725,76,1.47481356487235
1745524648.737754,77,1.52810135935907
1745524648.786109,76,1.5746785934795846
1745524648.849962,77,1.639319020474804
1745524648.9153986,77,1.6295348794150115
1745524648.9784288,77,1.4481520364658178
1745524649.0414321,77,1.4544675269135112
1745524649.1034503,77,1.4206477123876198
1745524649.16875,78,0.9886691659406066
1745524649.2320216,77,0.5385669300861438
1745524649.2962468,78,-0.07874241573783225
1745524649.3588855,77,-0.8916683816609434
1745524649.4203117,79,-1.855089293627071
1745524649.4849653,77,-2.768328807761854
1745524649.5455909,80,-4.097884011348119
1745524649.5979958,78,-4.522693051141159
1745524649.660056,80,-4.683528910115806
1745524649.7226765,77,-4.263208538050946
1745524649.7853189,80,-3.645408153825335
1745524649.8486698,78,-2.6893604498707018
1745524649.9104068,80,-2.233230617611392
1745524649.9757073,77,-1.810699428997792
1745524650.0397608,80,-1.5875809532651404
1745524650.0880914,78,-1.1694189051986448
1745524650.152479,81,-1.2316736524841425
1745524650.2145624,78,-0.9360502345635723
1745524650.2630446,81,-0.9720971580112656
1745524650.3302987,78,-0.7313221695166001
1745524650.3939116,81,-0.7022695554224702
1745524650.4543438,78,-0.4645304278624536
1745524650.52153,81,-0.6153362476026054
1745524650.583022,78,-0.36896184268566234
1745524650.6478062,81,-0.3838862215013553
1745524650.7087853,79,-0.18725080347016887
1745524650.7738538,81,-0.31197820630225914
1745524650.8360527,79,-0.15112047638367043
1745524650.8955948,82,-0.127714488797948
1745524650.9607167,81,-0.069660768983133
1745524651.0264926,84,-0.20082343515381496
1745524651.089553,84,-0.12463353589817538
1745524651.151802,82,-0.047703761640997655
1745524651.2161999,80,-0.04685189714295501
1745524651.278186,80,0.00814991228398293
1745524651.3412776,81,0.19145261605032404
1745524651.4036055,81,0.23733101888088914
1745524651.469808,81,0.15295713482707396
1745524651.5335512,77,0.4206160655676101
1745524651.5959637,71,0.9344142612193989
1745524651.6590319,95,-0.21304059502761719
1745524651.7238839,146,-2.915262458293949
1745524651.7888222,117,-1.4112563436238972
1745524651.8354816,92,0.022953049093811018
1745524651.8988035,83,0.6267261840216558
1745524651.9624422,82,0.8632931735627392
1745524652.0243406,78,1.203914350297369
1745524652.0890548,81,1.24276277547524
1745524652.151237,79,1.488859507470948
1745524652.216132,82,1.4807602736277703
1745524652.2780242,79,1.9018858397288814
1745524652.3407233,83,1.5736410029847634
1745524652.4069417,81,1.9215912923553742
1745524652.4684205,85,1.9669498448593932
1745524652.5317905,83,1.8131964655722763
1745524652.5955977,87,1.9444359237549218
1745524652.644453,86,1.4508042096337468
1745524652.7069416,91,0.9804926005843966
1745524652.757428,91,1.3952349815861376
1745524652.817268,96,1.3201184937312909
1745524652.8827825,96,2.489373074641811
1745524652.9448297,99,1.5613954113702175
1745524653.0079963,97,2.233874838194482
1745524653.0715637,96,2.84724846973586
1745524653.137081,91,1.8823614710184522
1745524653.2023237,88,6.890518922100161
1745524653.264359,83,5.22756093849668
1745524653.3300607,81,-6.95438029911341
1745524653.3917463,79,-9.56806024208357
1745524653.4543648,79,-3.9477131921162805
1745524653.517053,78,-0.6425370626172091
1745524653.5796666,78,0.5362035272315824
1745524653.6412988,79,1.2190624753054875
1745524653.7059271,77,1.6573122395337436
1745524653.7673507,79,1.5719912765607078
1745524653.8333478,78,1.7062929408687073
1745524653.893464,79,1.8582012081192971
1745524653.9590964,78,1.9308376628743686
1745524654.021853,80,1.7290092380731688
1745524654.085821,78,1.6863071881918055
1745524654.150679,80,1.3921329734054422
1745524654.2148852,78,1.3075457032448574
1745524654.277056,80,0.818614218271887
1745524654.3416617,78,0.33973332669088463
1745524654.4035594,81,-0.5471375512569883
1745524654.4717894,78,-1.3426820120739373
1745524654.5313494,81,-2.431478227330291
1745524654.5969942,78,-3.2112436904046753
1745524654.6616685,81,-4.050516408860737
1745524654.7271767,78,-4.146199485511051
1745524654.7903616,81,-4.121172432713577
1745524654.8540926,78,-3.3942835454777134
1745524654.9150548,81,-2.893337527629992
1745524654.9772637,79,-2.0179803151325375
1745524655.0409937,82,-1.690263638748223
1745524655.1059732,80,-1.4313385770776204
1745524655.1679652,82,-1.1442571687327985
1745524655.232879,80,-0.9607857615531341
1745524655.2945867,82,-1.0679124372502944
1745524655.3580098,80,-0.6616382081119198
1745524655.4233072,82,-0.6994095605646068
1745524655.4852073,81,-0.6880521728460378
1745524655.5517614,82,-0.5680861173604215
1745524655.615204,82,-0.5011339841642377
1745524655.6767757,82,-0.5458974214976922
1745524655.7427778,81,-0.37428853495906744
1745524655.8074229,82,-0.35000934884496393
1745524655.8707566,82,-0.2965398779186499
1745524655.9321337,82,-0.13697132287578895
1745524655.995871,82,-0.09970778859689178
1745524656.06343,83,-0.1689137896714259
1745524656.1236427,84,-0.1542275717860535
1745524656.185918,84,-0.056764072782582664
1745524656.2489762,87,-0.15204699600322202
1745524656.3117177,83,0.15568651864321836
1745524656.3745706,83,0.2532291524369651
1745524656.4387767,79,0.5112582321274314
1745524656.5021017,82,0.5092829439334555
1745524656.5667038,79,0.7184583483563419
1745524656.6269946,81,0.6114689421810261
1745524656.6937425,78,0.7053911045123089
1745524656.757919,73,0.8410362965220355
1745524656.8194287,77,0.7261442990487113
1745524656.8835247,134,-2.2039137981597356
1745524656.9464777,131,-2.0243139745137135
1745524657.0111694,101,-0.23267239406136397
1745524657.0716877,84,0.6235549284080406
1745524657.1384797,82,0.8688714996252991
1745524657.1984994,78,1.1664277535522944
1745524657.2665844,80,1.0067432514571282
1745524657.326855,78,1.2787772386880354
1745524657.391655,80,1.3454676609063423
1745524657.4555082,79,1.6168362259045095
1745524657.5194626,82,1.3196040741733421
1745524657.5842729,80,1.5456569491590233
1745524657.6454756,82,1.7268014728925822
1745524657.709354,82,1.342490329003766
1745524657.769901,85,1.4169079067755488
1745524657.8329508,85,1.0913804290426161
1745524657.8962913,88,0.4952772907251164
1745524657.9618435,91,0.7004223887162229
1745524658.0085227,94,0.542588840931399
1745524658.0734494,96,1.7140996408068419
1745524658.137183,98,1.4005439450746437
1745524658.1878781,99,1.3841565947990557
1745524658.248516,97,2.9632745026856564
1745524658.2970564,93,1.4105916186319318
1745524658.3629477,88,4.742862014975867
1745524658.428301,84,7.355639578856797
1745524658.4880588,80,-2.549257408799976
1745524658.5555413,80,-10.14004177378773
1745524658.6154242,78,-6.612605153461283
1745524658.6672971,79,-1.94377027422557
1745524658.7285223,77,0.12534197442981299
1745524658.7923412,79,0.8948485359184732
1745524658.8574154,77,1.3817594926902101
1745524658.9171712,79,1.4819821693221225
1745524658.982463,77,1.8665015600904749
1745524659.0463815,80,1.7768339495584655
1745524659.1074305,77,1.8357625415513783
1745524659.1702693,80,1.7311018700993297
1745524659.2336779,78,2.0122382441908107
1745524659.2859218,80,1.811182917350244
1745524659.349827,78,1.5371599439741863
1745524659.4114687,81,1.174092784127155
1745524659.4727771,79,0.861602630864218
1745524659.5238898,81,-0.07140176544302368
1745524659.5865993,79,-0.9429665210939846
1745524659.636401,82,-2.020181165971222
1745524659.6995492,80,-2.8396176252911363
1745524659.7620091,82,-3.9407090102352766
1745524659.8265421,80,-4.355673783484524
1745524659.8873332,82,-4.268557123519245
1745524659.950507,80,-3.6136625965396694
1745524660.0140734,82,-2.851468524070333
1745524660.079774,81,-1.9674028140682878
1745524660.143393,82,-1.5515036442368406
1745524660.2060375,82,-1.2645860944526834
1745524660.26879,82,-1.045872520294214
1745524660.331401,82,-0.8092198274507625
1745524660.394876,83,-0.7065875586813096
1745524660.4582572,83,-0.6502933592428857
1745524660.5223079,82,-0.359500747944556
1745524660.584916,83,-0.3259059027845722
1745524660.6476002,82,-0.29349669950304547
1745524660.7135618,84,-0.19356433149465757
1745524660.7784412,83,-0.058269175811778595
1745524660.8234143,84,-0.11709930556180015
1745524660.8874586,83,0.07027533028949973
1745524660.951274,84,0.16606999153257473
1745524661.016377,82,0.22855386685188384
1745524661.077401,85,0.044185133930980225
1745524661.141163,82,0.3138350133031984
1745524661.204993,85,0.2646926531034318
1745524661.2557,82,0.37139835767418505
1745524661.3200133,85,0.14030924782082066
1745524661.3807354,83,0.3465279573653639
1745524661.44839,84,0.342366270156111
1745524661.5105686,82,0.4683943010198922
1745524661.5741956,86,0.42388189129622234
1745524661.6383343,83,0.5518256881377628
1745524661.7023578,87,0.3439246399979885
1745524661.7636263,85,0.5212598766769738
1745524661.8287532,86,0.33703562638103957
1745524661.8925536,81,0.6732828983380376
1745524661.9551787,82,0.753031601387946
1745524662.0166638,80,0.6088832320566145
1745524662.0893164,82,0.5253563591896313
1745524662.1615193,80,0.7089185644021031
1745524662.2233803,80,0.7081435435793295
1745524662.2848513,70,1.3441442377064248
1745524662.349867,85,0.32596111546916173
1745524662.4147658,138,-2.4715859717243216
1745524662.4764955,128,-1.884571602458859
1745524662.5424206,97,-0.3751506575801926
1745524662.6057105,85,0.49377220952998346
1745524662.6699646,81,0.8099338658053314
1745524662.7345061,80,0.849973748895076
1745524662.7838666,80,0.9802591328531252
1745524662.8449094,80,0.9659164169411896
1745524662.9087405,81,1.0808912216208246
1745524662.9733214,80,1.2113132669126925
1745524663.0355005,82,0.8867645712848948
1745524663.0996072,81,1.2923323735661847
1745524663.1619697,83,1.404694758663207
1745524663.2258925,82,1.0541857413029376
1745524663.286849,86,1.1029873499262217
1745524663.337565,86,0.7737594128095479
1745524663.4009604,90,0.2979159167341232
1745524663.462424,90,0.5969383557567911
1745524663.5289478,96,0.3276224286898475
1745524663.5741603,95,1.704572610832292
1745524663.640226,100,1.0953264698158351
1745524663.704688,99,1.475582687652068
1745524663.7652557,100,2.472016359378797
1745524663.8309834,94,1.113019282424096
1745524663.8927712,93,5.222574868789707
1745524663.9583437,86,6.484318365112445
1745524664.0219204,86,-4.626929850016689
1745524664.0832868,82,-10.26679621882225
1745524664.1492498,83,-6.085224042942267
1745524664.2130976,80,-1.5860112235584216
1745524664.2622583,82,0.08875499035390089
1745524664.3237672,81,0.8362421315440742
1745524664.387261,83,1.146711007029848
1745524664.4502928,81,1.41222877488925
1745524664.5150456,83,1.46549044749904
1745524664.5798974,81,1.7986567370003046
1745524664.6414866,83,1.7916887968493258
1745524664.706086,82,1.9099781167081806
1745524664.7690315,82,2.0002893141296307
1745524664.832523,82,2.068267394853377
1745524664.896325,82,1.8928307614445679
1745524664.9582496,82,1.391407533761625
1745524665.023438,82,1.0314756086286798
1745524665.0718646,83,0.4400406919400457
1745524665.1327462,81,-0.4470570075579192
1745524665.1962483,82,-1.2647621767239716
1745524665.2624621,82,-2.1362841386023903
1745524665.324708,83,-3.2907085947509054
1745524665.3886971,81,-3.669347552828105
1745524665.4407206,83,-3.7641558484897812
1745524665.5011086,81,-3.2953526956520722
1745524665.5672057,83,-2.6780637269019465
1745524665.6303346,81,-1.9739061097747248
1745524665.6933978,83,-1.6140932598096316
1745524665.7569287,80,-1.1755985792898838
1745524665.82163,83,-0.9809760149212599
1745524665.883111,80,-0.5940326905370397
1745524665.9470527,83,-0.8820340517642284
1745524666.01183,80,-0.7093391235702333
1745524666.074226,83,-0.8420359204185669
1745524666.135777,80,-0.6768010493606618
1745524666.201466,82,-0.6296968480222439
1745524666.264912,80,-0.5927240634668177
1745524666.3285418,82,-0.7401369612281214
1745524666.390277,80,-0.48978786987164763
1745524666.455999,82,-0.5386871987460623
1745524666.5197678,80,-0.4724809255167822
1745524666.582304,82,-0.4463948146077084
1745524666.6283395,79,-0.3085705599359548
1745524666.6864872,82,-0.6276683841907881
1745524666.7364342,80,-0.3282692644334003
1745524666.7912035,81,-0.17811123461354783
1745524666.8391304,80,-0.33311928679271247
1745524666.890708,81,-0.44828197872155806
1745524666.9454663,80,-0.24708246308841697
1745524667.0005171,81,-0.33936793659115305
1745524667.0544024,80,-0.25700350118615434
1745524667.1132975,81,-0.2801420231476821
1745524667.165397,81,-0.35547713171692663
1745524667.2224963,82,-0.3314889462769586
1745524667.279919,83,-0.3156390314352222
1745524667.340557,81,-0.1432182185241564
1745524667.405716,79,-0.07295157271996522
1745524667.4703283,78,0.00048128270076405744
1745524667.5329828,79,0.004432020251739423
1745524667.5950785,77,0.0036957364383638433
1745524667.6578434,79,-0.0016013391785263675
1745524667.7194169,75,0.2597098245482661
1745524667.7829192,69,0.5994356003248651
1745524667.834251,89,-0.4195037245062194
1745524667.8981507,143,-3.2531913935510097
1745524667.960081,117,-1.7563811100360098
1745524668.0247028,93,-0.5217803504335023
1745524668.0854497,81,0.1781356958452176
1745524668.1507041,81,0.5618524440314627
1745524668.2148151,77,0.720022797699837
1745524668.275794,79,0.6836078727896258
1745524668.341805,77,1.0460408566689807
1745524668.4026186,80,0.905625600211343
1745524668.467958,78,1.2350469166746083
1745524668.5305989,81,1.103246570445454
1745524668.6074922,79,1.3027164768095536
1745524668.6731822,82,1.3952931681480982
1745524668.7368093,81,1.300121327163252
1745524668.8003743,85,1.4045076084142818
1745524668.9608557,84,1.1664051116287375
1745524669.021088,88,0.805741864870746
1745524669.0867305,89,1.0237072273619083
1745524669.1527555,93,1.0472399526920602
1745524669.2150452,94,2.2159993849529416
1745524669.2782924,97,1.4329886432017132
1745524669.3415318,97,2.322211735753742
1745524669.403927,95,3.0982793914621864
1745524669.4721103,91,1.764690016721412
1745524669.5316775,87,6.786099502685071
1745524669.5975256,82,5.853428828939267
1745524669.6608415,79,-5.961249698856855
1745524669.724303,78,-9.49171249130124
1745524669.788758,76,-4.2728207591864775
1745524669.8530593,77,-0.7057782240554955
1745524669.9166353,75,0.6784959050694601
1745524669.9788988,77,1.20203356768794
1745524670.0423257,75,1.729715346711338
1745524670.1043725,77,1.8393015461505642
1745524670.168833,76,1.9488415928840936
1745524670.231256,78,1.9229278058482908
1745524670.2934837,76,2.0600176109201094
1745524670.3592324,78,1.9459478371055816
1745524670.6030748,76,2.114280858855223
